0,0,0.0,0.0,0
0,0,0.0,0.0,0
0,0,0.0,0.0,0
0,0,0.0,0.0,0
0.3236,0.2981,0.10233130508304875,0.13913323470688085,0
0.3236,0.2981,0.14471831950378639,0.17271292076738207,0
0.3236,0.2981,0.17724301960867175,0.2007522079579699,0
0.3236,0.2981,0.2046626101660975,0.2253289706185159,0
0.3236,0.2981,0.22881975439196678,0.24747695044185428,0
0.304,0.2981,0.24819363408435757,0.26549282664509033,0
0.304,0.2981,0.2661610039055308,0.28236154306137373,0
0.304,0.3275,0.2829898938124823,0.30134515924434563,0
0.304,0.3275,0.29887268192325644,0.31630761135325214,0
0.304,0.3275,0.31395299011157707,0.31435713607297033,0
0.304,0.3275,0.3119877946330593,0.3123944829858556,0
0.304,0.3275,0.3100101417695879,0.3104194211063477,0
0.304,0.3275,0.30801979157190534,0.3084317120530896,0
0.304,0.3275,0.3060164962873734,0.3064311097130969,0
0.304,0.3275,0.304,0.3064311097130969,0
0.304,0.3275,0.304,0.3064311097130969,0
0.304,0.3275,0.304,0.3064311097130969,0
0.306,0.3255,0.30420059171540087,0.30641707687398884,0
0.306,0.3255,0.3044010512465422,0.3066160873144134,0
0.306,0.3255,0.3046013788543972,0.3068149686700439,0
0.306,0.3255,0.3048015747990814,0.30701372119174086,0
0.306,0.3255,0.3050016393398567,0.3072123451295537,0
0.306,0.3255,0.30520157273513515,0.3074108407327237,0
0.306,0.3255,0.3054013752424832,0.3076092082496881,0
0.306,0.3255,0.3056010471186249,0.3078074479280838,0
0.306,0.3255,0.3058005886194466,0.3080055600147504,0
0.306,0.3255,0.306,0.3080055600147504,0
0.306,0.3255,0.306,0.3080055600147504,0
0.3069,0.3167,0.3060901190825996,0.30717657788314523,0
0.3069,0.3167,0.3061802116401385,0.30726635188383383,0
0.3069,0.3167,0.30627027769602455,0.30735609966291544,0
0.3069,0.3167,0.3063603172736313,0.3074458212433534,0
0.3069,0.3167,0.30645033039629765,0.3075355166480776,0
0.3069,0.3167,0.30654031708732865,0.30762518589998444,0
0.3069,0.3167,0.3066302773699949,0.30771482902193714,0
0.3069,0.3167,0.30672021126753285,0.3078044460367654,0
0.3069,0.3167,0.30681011880314507,0.30789403696726575,0
0.3069,0.3167,0.3069,0.30789403696726575,0
0.3069,0.3167,0.3069,0.30789403696726575,0
0.3069,0.3167,0.3069,0.30789403696726575,0
0.3069,0.3167,0.3069,0.30789403696726575,0
0.3069,0.3167,0.3069,0.30789403696726575,0
0.3069,0.3167,0.3069,0.30789403696726575,0
0.3069,0.3167,0.3069,0.30789403696726575,0
0.3069,0.3167,0.3069,0.30789403696726575,0
0.3069,0.3167,0.3069,0.30789403696726575,0
0.3069,0.3167,0.3069,0.30789403696726575,0
0.3069,0.3167,0.3069,0.30789403696726575,0
0.3069,0.3167,0.3069,0.30789403696726575,0
0.3069,0.3167,0.3069,0.30789403696726575,0
0.306,0.3157,0.30681011880314507,0.3077017013277632,0
0.306,0.3157,0.3067202112675329,0.30761205438018846,0
0.306,0.3157,0.30663027736999493,0.3075223812993129,0
0.306,0.3157,0.3065403170873287,0.3074326820622687,0
0.306,0.3157,0.30645033039629765,0.30734295664615446,0
0.306,0.3157,0.3063603172736313,0.30725320502803544,0
0.306,0.3157,0.30627027769602455,0.3071634271849434,0
0.306,0.3157,0.30618021164013853,0.3070736230938763,0
0.306,0.3157,0.3060901190825996,0.30698379273179877,0
0.306,0.3157,0.306,0.30698379273179877,0
0.306,0.3157,0.306,0.30698379273179877,0
0.3089,0.3138,0.3062912355912262,0.30707941155342866,0
0.3089,0.3138,0.3065821945253833,0.30736962439382326,0
0.3089,0.3138,0.30687287758940185,0.30765956347885565,0
0.3089,0.3138,0.30716328556648825,0.3079492295817608,0
0.3089,0.3138,0.30745341923615027,0.3082386234721405,0
0.3089,0.3138,0.30774327937422125,0.3085277459159873,0
0.3089,0.3138,0.30803286675288405,0.30881659767570785,0
0.3089,0.3138,0.3083221821406951,0.30910517951014665,0
0.3089,0.3138,0.30861122630260873,0.30939349217460926,0
0.3089,0.3138,0.3089,0.30939349217460926,0
0.3109,0.3138,0.3091005823352651,0.3095937547819723,0
0.3109,0.3138,0.30930103459251473,0.30979388793196033,0
0.3109,0.3128,0.30950135702448867,0.30989280888720216,0
0.3109,0.3128,0.3097015498831092,0.3100927490284157,0
0.3109,0.3128,0.30990161341948513,0.31029256033620917,0
0.3109,0.3128,0.310101547883915,0.3104922430593074,0
0.3109,0.3128,0.31030135352589105,0.31069179744563585,0
0.3109,0.3128,0.31050103059410283,0.3108912237423244,0
0.3109,0.3128,0.3107005793364409,0.31109052219571076,0
0.3109,0.3128,0.3109,0.31109052219571076,0
0.3109,0.3128,0.3109,0.31109052219571076,0
0.3109,0.3128,0.3109,0.31109052219571076,0
0.3118,0.3099,0.310990117206319,0.3108902909387812,0
0.3118,0.3099,0.31108020830647526,0.31098041095863255,0
0.3118,0.3099,0.3111702733231438,0.31107050486987675,0
0.3118,0.3099,0.31126031227896694,0.31116057269519226,0
0.3118,0.3099,0.31135032519655415,0.31125061445722485,0
0.3118,0.3099,0.3114403120984822,0.31134063017858754,0
0.3118,0.3099,0.3115302730072954,0.3114306198818607,0
0.3118,0.3099,0.3116202079455054,0.31152058358959206,0
0.3118,0.3099,0.3117101169355913,0.3116105213242968,0
0.3118,0.3099,0.3118,0.3116105213242968,0
0.3118,0.3099,0.3118,0.3116105213242968,0
0.3148,0.3099,0.3121012976583084,0.3119120020133884,0
0.3148,0.3099,0.3124023047290145,0.3122131915854934,0
0.3148,0.3099,0.31270302205127476,0.3125140908823153,0
0.3148,0.3099,0.3130034504602146,0.3128147007415093,0
0.3148,0.3099,0.3133035907869554,0.3131150219967097,0
0.3148,0.3099,0.31360344385864136,0.3134150554775568,0
0.3148,0.3099,0.3139030104984659,0.31371480200972346,0
0.3148,0.3099,0.31420229152569845,0.3140142624149419,0
0.3148,0.3099,0.3145012877557102,0.31431343751102975,0
0.3167,0.3069,0.31499051573023595,0.31420993300658084,0
0.3167,0.3069,0.3151809163004639,0.31440080629667605,0
0.3167,0.3069,0.31537120191926216,0.31459156377754316,0
0.3167,0.3069,0.3155613727945802,0.3147822056597228,0
0.3167,0.3069,0.3157514291337412,0.3149727321531183,0
0.3167,0.3069,0.3159413711434449,0.3151631434669987,0
0.3167,0.3069,0.3161311990297699,0.31535343981000113,0
0.3167,0.3069,0.3163209129981766,0.31554362139013364,0
0.3167,0.3069,0.3165105132535095,0.3157336884147778,0
0.3167,0.3069,0.3167,0.3157336884147778,0
0.3167,0.3069,0.3167,0.3157336884147778,0
0.3187,0.3069,0.31690056800201544,0.3159348698703579,0
0.3187,0.3069,0.31710100914377426,0.3161359232988241,0
0.3187,0.3069,0.31730132366569164,0.31633684894428593,0
0.3187,0.3069,0.3175015118074243,0.3165376470500784,0
0.3187,0.3069,0.317701573807874,0.3167383178587649,0
0.3187,0.3069,0.3179015099051906,0.3169388616121412,0
0.3187,0.3069,0.3181013203367757,0.3171392785512384,0
0.3187,0.3069,0.31830100533928574,0.3173395689163266,0
0.3187,0.3069,0.3185005651486352,0.317539732946918,0
0.3187,0.3069,0.3187,0.317539732946918,0
0.3226,0.3069,0.31909214499890154,0.3179333090445227,0
0.3226,0.3069,0.3194838086664174,0.318326398528303,0
0.3226,0.2991,0.31987499277061343,0.317976607630184,0
0.3226,0.2991,0.3202656990687576,0.31836964365341114,0
0.3226,0.2991,0.320655929307412,0.31876219506083214,0
0.3226,0.2991,0.3210456852225241,0.3191542636406413,0
0.3226,0.2991,0.3214349685395166,0.3195458511700629,0
0.3226,0.2991,0.32182378097337677,0.3199369594154448,0
0.3226,0.2991,0.32221212422874473,0.32032759013235185,0
0.3226,0.2991,0.3226,0.32032759013235185,0
0.3226,0.2991,0.3226,0.32032759013235185,0
0.3245,0.3001,0.3227905032679865,0.3206129036704543,0
0.3245,0.3001,0.32298089417177606,0.3208045869372818,0
0.3245,0.3001,0.3231711729099611,0.32099615574022067,0
0.3245,0.3001,0.3233613396805499,0.32118761028408305,0
0.3245,0.3001,0.3235513946809687,0.32137895077307105,0
0.3245,0.3001,0.3237413381080643,0.3215701774107792,0
0.3245,0.3001,0.3239311701581063,0.3217612904001972,0
0.3245,0.3001,0.3241208910267896,0.321952289943712,0
0.3245,0.3001,0.3243105009092367,0.3221431762431109,0
0.3245,0.3001,0.3245,0.3221431762431109,0
0.3245,0.3001,0.3245,0.3221431762431109,0
0.3245,0.3001,0.3245,0.3221431762431109,0
0.3206,0.2991,0.3241121117761569,0.32165931822348937,0
0.3206,0.2991,0.32372375878208265,0.3212680002739146,0
0.3206,0.2991,0.3233349393430905,0.32087620510097037,0
0.3206,0.2991,0.32294565177441237,0.320483930954424,0
0.3206,0.2991,0.32255589438111343,0.3200911760733182,0
0.3206,0.2991,0.32216566545800623,0.3196979386858789,0
0.3206,0.2991,0.3217749632895636,0.3193042170094219,0
0.3206,0.2991,0.3213837861498305,0.31891000925025853,0
0.3206,0.2991,0.32099213230233536,0.3185153136036005,0
0.3206,0.2991,0.3206,0.3185153136036005,0
0.3206,0.2991,0.3206,0.3185153136036005,0
0.3167,0.304,0.3202121374963791,0.3185890409289058,0
0.3167,0.304,0.31982380461747995,0.31819872721304215,0
0.3167,0.304,0.31943499964781563,0.317807934136327,0
0.3167,0.304,0.31904572086144645,0.3174166599282401,0
0.3167,0.304,0.31865596652189015,0.3170249028073347,0
0.3167,0.304,0.3182657348820322,0.31663266098114384,0
0.3167,0.304,0.3178750241840337,0.3162399326460844,0
0.3167,0.304,0.3174838326592395,0.3158467159873599,0
0.3167,0.304,0.3170921585280847,0.31545300917886326,0
0.3157,0.3069,0.3166001421351544,0.31563352483536977,0
0.3157,0.3069,0.316500252764512,0.31553332945982104,0
0.3157,0.3069,0.316400331858233,0.3154331022578321,0
0.3157,0.3069,0.3163003793864307,0.31533284319905525,0
0.3157,0.3069,0.31620039531917093,0.31523255225309454,0
0.3157,0.3069,0.3161003796264724,0.3151322293895056,0
0.3157,0.3069,0.31600033227830626,0.3150318745777957,0
0.3157,0.3069,0.31590025324459614,0.31493148778742336,0
0.3157,0.3069,0.315800142495218,0.31483106898779856,0
0.3157,0.3069,0.3156999999999999,0.31483106898779856,0
0.3157,0.3069,0.3156999999999999,0.31483106898779856,0
0.3157,0.3069,0.3156999999999999,0.31483106898779856,0
0.3157,0.3069,0.3156999999999999,0.31483106898779856,0
0.3089,0.3167,0.3150266052256539,0.31512696171543303,0
0.3089,0.3167,0.3143517679288602,0.31445233979094506,0
0.3089,0.3167,0.3136754787993476,0.31377626742633036,0
0.3089,0.3167,0.31299772842626183,0.313098735225807,0
0.3089,0.3167,0.3123185072966378,0.3124197336917116,0
0.3089,0.3167,0.31163780579384137,0.31173925322294593,0
0.3089,0.3167,0.31095561419598133,0.31105728411339284,0
0.3089,0.3167,0.31027192267428905,0.31037381655030116,0
0.3089,0.3167,0.30958672129146625,0.3096888406126382,0
0.3089,0.3167,0.3089,0.3096888406126382,0
0.3089,0.3167,0.3089,0.3096888406126382,0
0.306,0.3167,0.3086112263026088,0.30940080316637836,0
0.306,0.3167,0.3083221821406952,0.3091124973209592,0
0.306,0.3167,0.30803286675288405,0.30882392232468003,0
0.306,0.3167,0.3077432793742213,0.3085350774223249,0
0.306,0.3167,0.3074534192361503,0.3082459618551393,0
0.306,0.3167,0.30716328556648825,0.3079565748608073,0
0.306,0.3167,0.30687287758940185,0.30766691567342763,0
0.306,0.3167,0.3065821945253834,0.30737698352349024,0
0.306,0.3167,0.3062912355912262,0.30708677763785275,0
0.303,0.3226,0.3057013248253923,0.30740327909767,0
0.303,0.3226,0.30540235755475104,0.3071059686818216,0
0.303,0.3226,0.30510309732941093,0.3068083701596161,0
0.303,0.3226,0.30480354328649134,0.30651048269186487,0
0.303,0.3226,0.3045036945588674,0.3062123054352976,0
0.303,0.3226,0.3042035502751406,0.3059138375425342,0
0.303,0.3226,0.3039031095596095,0.3056150781620567,0
0.303,0.3226,0.30360237153223957,0.30531602643818095,0
0.303,0.3226,0.3033013353086333,0.3050166815110282,0
0.303,0.3226,0.303,0.3050166815110282,0
0.303,0.3226,0.303,0.3050166815110282,0
0.3021,0.3245,0.3029101203327482,0.30512893340356956,0
0.3021,0.3245,0.3028202139884324,0.3050396810252725,0
0.3021,0.3245,0.3027302809432845,0.30495040252473843,0
0.3021,0.3245,0.30264032117350126,0.30486109787901766,0
0.3021,0.3245,0.3025503346552438,0.30477176706512693,0
0.3021,0.3245,0.30246032136463785,0.3046824100600492,0
0.3021,0.3245,0.3023702812777737,0.3045930268407338,0
0.3021,0.3245,0.302280214370706,0.3045036173840961,0
0.3021,0.3245,0.3021901206194537,0.3044141816670176,0
0.304,0.3236,0.30229053739738526,0.3045075105806095,0
0.304,0.3236,0.3024809547723625,0.3046965424812037,0
0.304,0.3236,0.30267125235145803,0.30488545718023347,0
0.304,0.3236,0.3028614303604868,0.30507425489542705,0
0.304,0.3236,0.30305148902455503,0.30526293584383934,0
0.304,0.3236,0.3032414285680636,0.3054515002418551,0
0.304,0.3236,0.30343124921471093,0.3056399483051913,0
0.304,0.3236,0.3036209511874963,0.30582828024890046,0
0.304,0.3236,0.3038105347087227,0.3060164962873734,0
0.304,0.3236,0.304,0.3060164962873734,0
0.304,0.3236,0.304,0.3060164962873734,0
0.306,0.3187,0.30420059171540087,0.3057014376806233,0
0.306,0.3187,0.3044010512465422,0.30590091369592215,0
0.306,0.3187,0.3046013788543972,0.3061002597189359,0
0.306,0.3187,0.3048015747990814,0.3062994760034695,0
0.306,0.3187,0.3050016393398567,0.3064985628025032,0
0.306,0.3187,0.30520157273513515,0.30669752036819603,0
0.306,0.3187,0.3054013752424832,0.3068963489518896,0
0.306,0.3187,0.3056010471186249,0.3070950488041121,0
0.306,0.3187,0.3058005886194466,0.30729362017458156,0
0.306,0.3187,0.306,0.30729362017458156,0
0.306,0.3187,0.306,0.30729362017458156,0
0.306,0.3157,0.306,0.30698379273179877,0
0.306,0.3157,0.306,0.30698379273179877,0
0.306,0.3157,0.306,0.30698379273179877,0
0.306,0.3157,0.306,0.30698379273179877,0
0.306,0.3157,0.306,0.30698379273179877,0
0.306,0.3157,0.306,0.30698379273179877,0
0.306,0.3157,0.306,0.30698379273179877,0
0.306,0.3157,0.306,0.30698379273179877,0
0.306,0.3157,0.306,0.30698379273179877,0
0.3069,0.3148,0.3060901190825996,0.306981212780196,0
0.3069,0.3148,0.3061802116401385,0.3070710438970109,0
0.3069,0.3148,0.30627027769602455,0.3071608487421533,0
0.3069,0.3148,0.3063603172736313,0.3072506273386598,0
0.3069,0.3148,0.30645033039629765,0.3073403797095331,0
0.3069,0.3148,0.30654031708732865,0.30743010587774255,0
0.3069,0.3148,0.3066302773699949,0.30751980586622385,0
0.3069,0.3148,0.30672021126753285,0.3076094796978793,0
0.3069,0.3148,0.30681011880314507,0.30769912739557775,0
0.3069,0.3148,0.3069,0.30769912739557775,0
0.3069,0.3148,0.3069,0.30769912739557775,0
0.3089,0.3167,0.30710058612773766,0.3080939759229317,0
0.3089,0.3167,0.30730104132592845,0.30829378521144407,0
0.3089,0.3167,0.3075013658506251,0.3084934650847567,0
0.3089,0.3167,0.3077015599570467,0.30869301579400854,0
0.3089,0.3167,0.3079016238995826,0.3088924375895273,0
0.3089,0.3167,0.3081015579317963,0.3090917307208331,0
0.3089,0.3167,0.308301362306429,0.3092908954366423,0
0.3089,0.3167,0.3085010372754037,0.30948993198487085,0
0.3089,0.3167,0.3087005830898283,0.3096888406126382,0
0.3089,0.3167,0.3089,0.3096888406126382,0
0.3089,0.3109,0.3089,0.3091005823352651,0
0.3089,0.3109,0.3089,0.3091005823352651,0
0.3089,0.3109,0.3089,0.3091005823352651,0
0.3089,0.3109,0.3089,0.3091005823352651,0
0.3089,0.3109,0.3089,0.3091005823352651,0
0.3089,0.3109,0.3089,0.3091005823352651,0
0.3089,0.3109,0.3089,0.3091005823352651,0
0.3089,0.3109,0.3089,0.3091005823352651,0
0.3089,0.3109,0.3089,0.3091005823352651,0
0.3089,0.3099,0.3089,0.3090001456310337,0
0.3089,0.3099,0.3089,0.3090001456310337,0
0.3089,0.3099,0.3089,0.3090001456310337,0
0.3089,0.3099,0.3089,0.3090001456310337,0
0.3089,0.3099,0.3089,0.3090001456310337,0
0.3089,0.3099,0.3089,0.3090001456310337,0
0.3089,0.3099,0.3089,0.3090001456310337,0
0.3089,0.3099,0.3089,0.3090001456310337,0
0.3089,0.3099,0.3089,0.3090001456310337,0
0.3089,0.3099,0.3089,0.3090001456310337,0
0.3089,0.3099,0.3089,0.3090001456310337,0
0.3089,0.3099,0.3089,0.3090001456310337,0
0.3118,0.3079,0.3091912240022346,0.3090914638096627,0
0.3118,0.3079,0.30948217396160316,0.30938250758567465,0
0.3118,0.3079,0.30977285065027893,0.3096732778268089,0
0.3118,0.3079,0.3100632548368155,0.30996377530285696,0
0.3118,0.3079,0.31035338728617096,0.3102540007800061,0
0.3118,0.3079,0.3106432487597309,0.31054395502086335,0
0.3118,0.3079,0.31093284001533195,0.31083363878447906,0
0.3118,0.3079,0.31122216180728524,0.31112305282636965,0
0.3118,0.3079,0.3115112148863986,0.3114121978985409,0
0.3118,0.3079,0.3118,0.3114121978985409,0
0.3118,0.3079,0.3118,0.3114121978985409,0
0.3148,0.3089,0.3121012976583084,0.311812791591365,0
0.3148,0.3089,0.3124023047290145,0.31211407690137916,0
0.3148,0.3089,0.31270302205127476,0.3124150716594832,0
0.3148,0.3089,0.3130034504602146,0.31271577670466194,0
0.3148,0.3089,0.3133035907869554,0.31301619287187044,0
0.3148,0.3089,0.31360344385864136,0.3133163209920607,0
0.3148,0.3089,0.3139030104984659,0.3136161618922086,0
0.3148,0.3089,0.31420229152569845,0.31391571639534077,0
0.3148,0.3089,0.3145012877557102,0.3142149853205604,0
0.3148,0.3089,0.3148,0.3142149853205604,0
0.3196,0.305,0.3152832884883054,0.3143185454280419,0
0.3196,0.305,0.3157658372908634,0.31480257305174625,0
0.3196,0.305,0.31624764979363884,0.31528585759592836,0
0.3196,0.305,0.31672872935684254,0.31576840247244503,0
0.3196,0.305,0.317209079315205,0.31625021106712325,0
0.3196,0.305,0.3176887029782457,0.31673128674003775,0
0.3196,0.305,0.31816760363053936,0.317211632825784,0
0.3196,0.305,0.3186457845319784,0.3176912526337482,0
0.3196,0.305,0.3191232489180317,0.31817014944837296,0
0.3196,0.305,0.3196,0.31817014944837296,0
0.3196,0.305,0.3196,0.31817014944837296,0
0.3206,0.304,0.31970014075692865,0.3181750524475481,0
0.3206,0.304,0.31980025015624985,0.3182756415436155,0
0.3206,0.304,0.3199003282274027,0.3183761988591484,0
0.3206,0.304,0.3200003749997803,0.3184767244242505,0
0.3206,0.304,0.32010039050272965,0.31857721826897795,0
0.3206,0.304,0.3202003747655521,0.3186776804233393,0
0.3206,0.304,0.32030032781750317,0.31877811091729624,0
0.3206,0.304,0.32040024968779285,0.3188785097807627,0
0.3206,0.304,0.32050014040558544,0.31897887704360617,0
0.3206,0.304,0.3206,0.31897887704360617,0
0.3206,0.304,0.3206,0.31897887704360617,0
0.3206,0.304,0.3206,0.31897887704360617,0
0.3236,0.2991,0.32090126207293107,0.31881854557098777,0
0.3236,0.2991,0.32120224158620064,0.3191214894048973,0
0.3236,0.2991,0.32150293933337526,0.31942414592513196,0
0.3236,0.2991,0.3218033561043141,0.3197265159476142,0
0.3236,0.2991,0.3221034926851927,0.3200286002844121,0
0.3236,0.2991,0.32240334985852737,0.32033039974376454,0
0.3236,0.2991,0.3227029284031987,0.32063191513010675,0
0.3236,0.2991,0.32300222909447546,0.32093314724409505,0
0.3236,0.2991,0.32330125270403764,0.3212340968826317,0
0.3236,0.2991,0.3236,0.3212340968826317,0
0.3216,0.2991,0.3234005565857919,0.32103318364306205,0
0.3216,0.2991,0.32320099009749337,0.3208321445865423,0
0.3216,0.2991,0.32300130030698015,0.3206309794764068,0
0.3216,0.2991,0.32280148698542266,0.3204296880752469,0
0.3216,0.2991,0.3226015499032824,0.32022827014490773,0
0.3216,0.2991,0.3224014888303092,0.3200267254464852,0
0.3216,0.2991,0.32220130353553816,0.3198250537403222,0
0.3216,0.2991,0.3220009937872863,0.31962325478600584,0
0.3216,0.2991,0.32180055935314966,0.31942132834236353,0
0.3216,0.2991,0.3216,0.31942132834236353,0
0.3216,0.2991,0.3216,0.31942132834236353,0
0.3216,0.2991,0.3216,0.31942132834236353,0
0.3206,0.304,0.32150013996886534,0.31978318279734474,0
0.3206,0.304,0.32140024891091795,0.31968275524338186,0
0.3206,0.304,0.3213003267972194,0.3195822961304334,0
0.3206,0.304,0.32120037359878645,0.3194818054287286,0
0.3206,0.304,0.32110038928659057,0.31938128310845015,0
0.3206,0.304,0.321000373831558,0.3192807291397337,0
0.3206,0.304,0.32090032720456985,0.3191801434926678,0
0.3206,0.304,0.3208002493764617,0.31907952613729385,0
0.3206,0.304,0.3207001403180236,0.31897887704360617,0
0.3138,0.3069,0.31992650405991685,0.31858012022095794,0
0.3138,0.3069,0.3192515873100712,0.3179023450684188,0
0.3138,0.3069,0.3185752407203046,0.3172231217928479,0
0.3138,0.3069,0.3178974551643973,0.3165424410722834,0
0.3138,0.3069,0.31721822141863165,0.3158602934843188,0
0.3138,0.3069,0.31653753016032715,0.31517666950458123,0
0.3138,0.3069,0.31585537196634794,0.31449155950517976,0
0.3138,0.3069,0.3151717373115807,0.31380495375312356,0
0.3138,0.3069,0.31448661656738275,0.3131168424087085,0
0.3138,0.3069,0.3138,0.3131168424087085,0
0.3138,0.3069,0.3138,0.3131168424087085,0
0.3138,0.3069,0.3138,0.3131168424087085,0
0.3109,0.3099,0.31351120713620434,0.31312303332715724,0
0.3109,0.3099,0.3132221480036174,0.31283361552109457,0
0.3109,0.3099,0.312932821864374,0.3125439297122886,0
0.3109,0.3099,0.3126432279771945,0.31225397515484093,0
0.3109,0.3099,0.31235336559736315,0.31196375109938657,0
0.3109,0.3099,0.31206323397670543,0.3116732567930717,0
0.3109,0.3099,0.3117728323635657,0.31138249147953073,0
0.3109,0.3099,0.3114821600027841,0.3110914543988632,0
0.3109,0.3099,0.31119121613567435,0.3108001447876111,0
0.3109,0.3099,0.3109,0.3108001447876111,0
0.3109,0.3099,0.3109,0.3108001447876111,0
0.3069,0.3206,0.31050231883192114,0.3114871506178064,0
0.3069,0.3206,0.31010412767327045,0.31109022003271014,0
0.3069,0.3206,0.30970542455694894,0.31069278234294406,0
0.3069,0.3206,0.3093062075031796,0.31029483559995,0
0.3069,0.3206,0.30890647451939235,0.3098963778426589,0
0.3069,0.3206,0.30850622360010826,0.30949740709737783,0
0.3069,0.3206,0.3081054527268221,0.30909792137767605,0
0.3069,0.3206,0.30770415986788346,0.3086979186842697,0
0.3069,0.3206,0.3073023429783769,0.308297397004905,0
0.3069,0.3206,0.3069,0.308297397004905,0
0.304,0.3216,0.30661123430168047,0.30811417364347266,0
0.304,0.3216,0.3063221963880515,0.30782654693836914,0
0.304,0.3216,0.30603288548781815,0.3075386512294024,0
0.304,0.3216,0.3057433008260361,0.3072504857603971,0
0.304,0.3216,0.3054534416240878,0.30696204977162894,0
0.304,0.3216,0.3051633070996577,0.30667334249980055,0
0.304,0.3216,0.3048728964667079,0.3063843631780186,0
0.304,0.3216,0.3045822089354531,0.3060951110357694,0
0.304,0.3216,0.30429124371233557,0.3058055852988954,0
0.304,0.3216,0.304,0.3058055852988954,0
0.304,0.3216,0.304,0.3058055852988954,0
0.304,0.3216,0.304,0.3058055852988954,0
0.303,0.3245,0.3039001480749886,0.30601262228868925,0
0.303,0.3245,0.3038002633310248,0.3059134272960244,0
0.303,0.3245,0.30370034573572685,0.305814200128117,0
0.303,0.3245,0.3036003952566597,0.30571494075363737,0
0.303,0.3245,0.3035004118613351,0.3056156491412048,0
0.303,0.3245,0.3034003955172109,0.3055163252593877,0
0.303,0.3245,0.30330034619169166,0.3054169690767034,0
0.303,0.3245,0.30320026385212795,0.30531758056161784,0
0.303,0.3245,0.3031001484658165,0.3052181596825458,0
0.303,0.3245,0.303,0.3052181596825458,0
0.303,0.3245,0.303,0.3052181596825458,0
0.303,0.3265,0.303,0.30543137527110736,0
0.303,0.3265,0.303,0.30543137527110736,0
0.303,0.3265,0.303,0.30543137527110736,0
0.303,0.3265,0.303,0.30543137527110736,0
0.303,0.3265,0.303,0.30543137527110736,0
0.303,0.3265,0.303,0.30543137527110736,0
0.303,0.3265,0.303,0.30543137527110736,0
0.303,0.3265,0.303,0.30543137527110736,0
0.303,0.3265,0.303,0.30543137527110736,0
0.303,0.3265,0.303,0.30543137527110736,0
0.3069,0.3314,0.3033922559987318,0.30634711847836926,0
0.3069,0.3314,0.3037840055039106,0.30673509417736994,0
0.3069,0.3314,0.30417525047248667,0.30712257976254365,0
0.3069,0.3314,0.30456599284884056,0.3075095770866332,0
0.3069,0.3314,0.3049562345648962,0.30789608799073753,0
0.3069,0.3314,0.30534597754023224,0.3082821143044144,0
0.3069,0.3314,0.305735223682192,0.3086676578457808,0
0.3069,0.3314,0.30612397488599286,0.3090527204216135,0
0.3069,0.3314,0.3065122330348334,0.30943730382744744,0
0.3069,0.3314,0.3069,0.30943730382744744,0
0.3069,0.3314,0.3069,0.30943730382744744,0
0.3069,0.3314,0.3069,0.30943730382744744,0
0.306,0.3177,0.30681011880314507,0.3079074812342175,0
0.306,0.3177,0.3067202112675329,0.3078178942166943,0
0.306,0.3177,0.30663027736999493,0.30772828111826184,0
0.306,0.3177,0.3065403170873287,0.3076386419161286,0
0.306,0.3177,0.30645033039629765,0.3075489765874697,0
0.306,0.3177,0.3063603172736313,0.3074592851094271,0
0.306,0.3177,0.30627027769602455,0.3073695674591094,0
0.306,0.3177,0.30618021164013853,0.3072798236135917,0
0.306,0.3177,0.3060901190825996,0.3071900535499156,0
0.306,0.3177,0.306,0.3071900535499156,0
0.306,0.3177,0.306,0.3071900535499156,0
0.3069,0.3177,0.3060901190825996,0.30727982361359163,0
0.3069,0.3177,0.3061802116401385,0.30736956745910937,0
0.3069,0.3177,0.30627027769602455,0.30745928510942716,0
0.3069,0.3177,0.3063603172736313,0.3075489765874697,0
0.3069,0.3177,0.30645033039629765,0.3076386419161286,0
0.3069,0.3177,0.30654031708732865,0.30772828111826184,0
0.3069,0.3177,0.3066302773699949,0.3078178942166943,0
0.3069,0.3177,0.30672021126753285,0.30790748123421746,0
0.3069,0.3177,0.30681011880314507,0.30799704219358987,0
0.3069,0.3148,0.3069,0.30769912739557775,0
0.3069,0.3148,0.3069,0.30769912739557775,0
0.3069,0.3148,0.3069,0.30769912739557775,0
0.3069,0.3148,0.3069,0.30769912739557775,0
0.3069,0.3148,0.3069,0.30769912739557775,0
0.3069,0.3148,0.3069,0.30769912739557775,0
0.3069,0.3148,0.3069,0.30769912739557775,0
0.3069,0.3148,0.3069,0.30769912739557775,0
0.3069,0.3148,0.3069,0.30769912739557775,0
0.3069,0.3148,0.3069,0.30769912739557775,0
0.3069,0.3148,0.3069,0.30769912739557775,0
0.3069,0.3148,0.3069,0.30769912739557775,0
0.3089,0.3138,0.30710058612773766,0.3077970971273121,0
0.3089,0.3138,0.30730104132592845,0.30799709901231215,0
0.3089,0.3138,0.3075013658506251,0.3081969711077642,0
0.3089,0.3138,0.3077015599570467,0.3083967136660182,0
0.3089,0.3138,0.3079016238995826,0.3085963269386076,0
0.3089,0.3138,0.3081015579317963,0.3087958111762528,0
0.3089,0.3138,0.308301362306429,0.30899516662886495,0
0.3089,0.3138,0.3085010372754037,0.3091943935455493,0
0.3089,0.3138,0.3087005830898283,0.30939349217460926,0
0.3128,0.3109,0.3092922129637279,0.3094925411055976,0
0.3128,0.3109,0.3096839291923299,0.30988400410476175,0
0.3128,0.3109,0.3100751505683743,0.31027497320924874,0
0.3128,0.3109,0.31046587896256816,0.3106654502837417,0
0.3128,0.3109,0.3108561162338615,0.31105543718122014,0
0.3128,0.3109,0.31124586422955086,0.311444935743062,0
0.3128,0.3109,0.3116351247853811,0.3118339477991452,0
0.3128,0.3109,0.31202389972564604,0.31222247516794815,0
0.3128,0.3109,0.31241219086328886,0.3126105196566488,0
0.3128,0.3109,0.3128,0.3126105196566488,0
0.3128,0.3109,0.3128,0.3126105196566488,0
0.3128,0.3109,0.3128,0.3126105196566488,0
0.3109,0.3109,0.3126105196566488,0.31242092439527797,0
0.3109,0.3109,0.31242092439527797,0.3122312140065436,0
0.3109,0.3109,0.3122312140065436,0.3120413882804651,0
0.3109,0.3109,0.3120413882804651,0.31185144700642325,0
0.3109,0.3109,0.31185144700642325,0.3116613899731566,0
0.3109,0.3109,0.3116613899731566,0.3114712169687594,0
0.3109,0.3109,0.3114712169687594,0.31128092778067856,0
0.3109,0.3109,0.31128092778067856,0.31109052219571076,0
0.3109,0.3109,0.31109052219571076,0.3109,0
0.3109,0.3109,0.3109,0.3109,0
0.3109,0.3109,0.3109,0.3109,0
0.3109,0.3109,0.3109,0.3109,0
0.3148,0.3089,0.3112921987458086,0.3110930294943942,0
0.3148,0.3089,0.31168390397965695,0.31148498519190293,0
0.3148,0.3089,0.31207511755985934,0.3118764482932304,0
0.3148,0.3089,0.3124658413330968,0.31226742065095425,0
0.3148,0.3089,0.31285607713451885,0.31265790410606925,0
0.3148,0.3089,0.3132458267878441,0.3130479004880883,0
0.3148,0.3089,0.3136350921054594,0.3134374116151421,0
0.3148,0.3089,0.3140238748885187,0.3138264392940786,0
0.3148,0.3089,0.31441217692703954,0.3142149853205604,0
0.3167,0.3079,0.31499051573023595,0.3143077504612319,0
0.3167,0.3079,0.3151809163004639,0.31449856438464074,0
0.3167,0.3079,0.31537120191926216,0.31468926260678165,0
0.3167,0.3079,0.3155613727945802,0.31487984533786856,0
0.3167,0.3079,0.3157514291337412,0.3150703127874792,0
0.3167,0.3079,0.3159413711434449,0.3152606651645587,0
0.3167,0.3079,0.3161311990297699,0.31545090267742143,0
0.3167,0.3079,0.3163209129981766,0.31564102553375406,0
0.3167,0.3079,0.3165105132535095,0.3158310339406183,0
0.3167,0.3079,0.3167,0.3158310339406183,0
0.3167,0.3079,0.3167,0.3158310339406183,0
0.3167,0.3079,0.3167,0.3158310339406183,0
0.3157,0.304,0.3166001421351544,0.31535275644902805,0
0.3157,0.304,0.316500252764512,0.31525247183804916,0
0.3157,0.304,0.316400331858233,0.315152155315492,0
0.3157,0.304,0.3163003793864307,0.3150518068508733,0
0.3157,0.304,0.31620039531917093,0.3149514264136614,0
0.3157,0.304,0.3161003796264724,0.3148510139732759,0
0.3157,0.304,0.31600033227830626,0.31475056949908764,0
0.3157,0.304,0.31590025324459614,0.3146500929604185,0
0.3157,0.304,0.315800142495218,0.3145495843265414,0
0.3157,0.304,0.3156999999999999,0.3145495843265414,0
0.3157,0.304,0.3156999999999999,0.3145495843265414,0
0.3177,0.2913,0.3159005698000559,0.31354758809469413,0
0.3177,0.2913,0.31610101233624666,0.3137495338641955,0
0.3177,0.2913,0.3163013278505166,0.3139513497343179,0
0.3177,0.2913,0.3165015165840442,0.31415303595540817,0
0.3177,0.2913,0.31670157877724575,0.31435459277701033,0
0.3177,0.2913,0.3169015146697787,0.31455602044786873,0
0.3177,0.2913,0.31710132450054507,0.3147573192159318,0
0.3177,0.2913,0.3173010085076945,0.31495848932835574,0
0.3177,0.2913,0.3175005669286277,0.3151595310315079,0
0.3431,0.2884,0.3203306448031471,0.3175466091772986,0
0.3431,0.2884,0.32293986127451035,0.3201785142697742,0
0.3431,0.2884,0.32552816468010876,0.3227889604679813,0
0.3431,0.2884,0.32809604996098324,0.32537846425355194,0
0.3431,0.2884,0.33064399283821866,0.3279475217165088,0
0.3431,0.2884,0.3331724508419026,0.3304966096649102,0
0.3431,0.2884,0.33568186427032365,0.33302618665804645,0
0.3431,0.2884,0.33817265708510497,0.33553669396952696,0
0.3431,0.2884,0.34064523774742544,0.33802855648598684,0
0.3431,0.2884,0.3431,0.33802855648598684,1
0.3431,0.2884,0.3431,0.33802855648598684,1
0.3021,0.2962,0.33922306820144177,0.33477451067845654,1
0.3021,0.2962,0.33530131225511184,0.33080001964933436,1
0.3021,0.2962,0.3313331405096689,0.3267771916765306,1
0.3021,0.2962,0.3273168648267302,0.32270421906135655,1
0.3021,0.2962,0.3232506921879673,0.3185791785412223,1
0.3021,0.2962,0.319132715339559,0.31440002067429956,1
0.3021,0.2962,0.3149609023355121,0.3101645579365895,1
0.3021,0.2962,0.3107330848171787,0.3058704513352017,1
0.3021,0.2962,0.30644694483711205,0.30151519530531123,1
0.3021,0.2962,0.3021,0.30151519530531123,1
0.3021,0.2962,0.3021,0.30151519530531123,1
0.3245,0.2952,0.3044141816670176,0.30373649270379083,1
0.3245,0.2952,0.30671090296890324,0.30603829989071624,1
0.3245,0.2952,0.3089905532536553,0.30832292324768845,1
0.3245,0.2952,0.31125350761075765,0.3105907419740646,1
0.3245,0.2952,0.31350012759168056,0.31284212152457985,1
0.3245,0.2952,0.31573076188423577,0.3150774142968677,1
0.3245,0.2952,0.31794574694434896,0.3172969602753862,1
0.3245,0.2952,0.32014540758848936,0.31950108763508145,1
0.3245,0.2952,0.322330057549711,0.321690113307823,1
0.2981,0.3236,0.32195742886288553,0.3218668311584777,1
0.2981,0.3236,0.31939461798846897,0.31930329312426453,1
0.2981,0.3236,0.31681107619526183,0.3167190063763146,1
0.2981,0.3236,0.3142062921075897,0.31411345880111535,1
0.2981,0.3236,0.3115797329737607,0.3114861168655836,1
0.2981,0.3236,0.30893084339379256,0.30883642434143027,1
0.2981,0.3236,0.30625904394809306,0.30616380093015566,1
0.2981,0.3236,0.303563729717501,0.3034676407790458,1
0.2981,0.3236,0.30084426868398206,0.3007473108774208,1
0.2981,0.3236,0.2981,0.3007473108774208,1
0.2981,0.3236,0.2981,0.3007473108774208,1
0.2981,0.3236,0.2981,0.3007473108774208,1
0.3382,0.306,0.3023494220268992,0.30313761231493525,1
0.3382,0.306,0.3065399419325318,0.30731738479949355,1
0.3382,0.306,0.3106739432266568,0.31144106665627763,1
0.3382,0.306,0.3147536528779292,0.3155108571824431,1
0.3382,0.306,0.31878115534014867,0.3195288156019735,1
0.3382,0.306,0.32275840500287517,0.32349687324609494,1
0.3382,0.306,0.32668723727749144,0.32741684440480456,1
0.3382,0.306,0.33056937849716206,0.331290436022533,1
0.3382,0.306,0.33440645478220066,0.3351192563849472,1
0.3206,0.3304,0.3364814289080454,0.3357055912551949,1
0.3206,0.3304,0.3347540350765021,0.3339741846310879,1
0.3206,0.3304,0.3330176812122744,0.3322337550580916,1
0.3206,0.3304,0.3312722264241299,0.3304841599835006,1
0.3206,0.3304,0.32951752608928103,0.3287252530609719,1
0.3206,0.3304,0.32775343171353677,0.3269568840076624,1
0.3206,0.3304,0.32597979078464356,0.32517889845437387,1
0.3206,0.3304,0.32419644661840447,0.32339113778828266,1
0.3206,0.3304,0.32240323819713723,0.32159343898780024,1
0.3206,0.3304,0.3206,0.32159343898780024,1
0.3206,0.3304,0.3206,0.32159343898780024,1
0.3206,0.3304,0.3206,0.32159343898780024,1
0.3372,0.2942,0.32229847657101945,0.3197705990237376,1
0.3372,0.2942,0.32398804916231094,0.3214734576912999,1
0.3372,0.2942,0.3256688563556546,0.3231673436472194,1
0.3372,0.2942,0.3273410331748832,0.32485239725142867,1
0.3372,0.2942,0.3290047112124688,0.3265287552421685,1
0.3372,0.2942,0.3306600187503775,0.32819655086548366,1
0.3372,0.2942,0.33230708087550587,0.32985591399882463,1
0.3372,0.2942,0.33394601958999304,0.3315069712690821,1
0.3372,0.2942,0.33557695391668363,0.3331498461653554,1
0.3372,0.2942,0.33719999999999994,0.3331498461653554,1
0.3372,0.2942,0.33719999999999994,0.3331498461653554,1
0.2737,0.35,0.33139798581162194,0.3327224684327766,1
0.2737,0.35,0.3254925651992684,0.32684097968278086,1
0.2737,0.35,0.3194780039376733,0.3208516962710342,1
0.2737,0.35,0.3133480173864197,0.31474846465074297,1
0.2737,0.35,0.3070956935549569,0.3085245225261681,1
0.2737,0.35,0.3007134017632071,0.3021724110503803,1
0.2737,0.35,0.2941926834576278,0.2956838700369028,1
0.2737,0.35,0.28752412072728784,0.2890497119874019,1
0.2737,0.35,0.28069717668690575,0.2822596694535016,1
0.2737,0.35,0.2737,0.2822596694535016,1
0.2972,0.35,0.27614000977764885,0.28462630939531924,1
0.2972,0.3333,0.27855864732583696,0.2849783149644899,1
0.2972,0.3333,0.28095646459905493,0.2873225626364905,1
0.2972,0.3333,0.2833339901953171,0.2896478378997503,1
0.2972,0.3333,0.28569173071686904,0.2919545940724345,1
0.2972,0.3333,0.2880301720306399,0.29424326670291034,1
0.2972,0.3333,0.2903497804373201,0.29651427452991197,1
0.2972,0.3333,0.29265100375703484,0.2987680203770143,1
0.2972,0.3333,0.29493427233877045,0.30100489198682473,1
0.2972,0.3333,0.2972,0.30100489198682473,1
0.304,0.3128,0.2978869852813312,0.2994799759583268,1
0.304,0.3128,0.2985723898822529,0.3001617430653014,1
0.304,0.3128,0.2992562246637487,0.3008419651577885,1
0.304,0.3128,0.29993850036299113,0.3015206526923156,1
0.304,0.3128,0.3006192275953087,0.3021978160079917,1
0.304,0.3128,0.3012984168561129,0.30287346532834464,1
0.304,0.3128,0.3019760785227863,0.3035476107631223,1
0.304,0.3128,0.30265222285653215,0.3042202623100572,1
0.304,0.3128,0.30332686000418757,0.3048914298565967,1
0.304,0.3128,0.304,0.3048914298565967,1
0.304,0.3128,0.304,0.3048914298565967,1
0.3128,0.3363,0.3048914298565967,0.3082644205872614,1
0.3128,0.3363,0.30578026097182925,0.30914355403275035,1
0.3128,0.3363,0.30666651594199196,0.3100201945035194,1
0.3128,0.3363,0.30755021703780344,0.3108943630881718,1
0.3128,0.3363,0.30843138621093674,0.3117660805796551,1
0.3128,0.3363,0.30931004510038146,0.31263536748103216,1
0.3128,0.3363,0.3101862150386442,0.31350224401110754,1
0.3128,0.3363,0.3110599170577913,0.3143667301099148,1
0.3128,0.3363,0.31193117189533975,0.3152288454440679,1
0.3001,0.3363,0.3115532972061121,0.3139917865167814,1
0.3001,0.3363,0.3103015855583081,0.31274983453233035,1
0.3001,0.3333,0.3090448041951199,0.3111803271416752,1
0.3001,0.3333,0.30778289101247974,0.3099271091724633,1
0.3001,0.3333,0.3065157826279097,0.30866880308835876,1
0.3001,0.3333,0.3052434143433728,0.3074053464076381,1
0.3001,0.3333,0.3039657201067252,0.30613667535922573,1
0.3001,0.3333,0.3026826324717029,0.30486272484513416,1
0.3001,0.3333,0.3013940825563767,0.30358342840148567,1
0.3001,0.3333,0.3001,0.30358342840148567,1
0.3001,0.3333,0.3001,0.30358342840148567,1
0.305,0.3265,0.30059359440946176,0.30333271007261975,1
0.305,0.3265,0.30108637963215806,0.303821052595109,1
0.305,0.3265,0.3015783596347722,0.30430861144568355,1
0.305,0.3265,0.3020695383516848,0.30479539038509096,1
0.305,0.3265,0.302559919685341,0.30528139314409586,1
0.305,0.3265,0.30304950750661186,0.3057666234238132,1
0.305,0.3265,0.3035383056551512,0.3062510848960376,1
0.305,0.3265,0.30402631793974677,0.30673478120356684,1
0.305,0.3265,0.3045135481386666,0.30721771596052205,1
0.305,0.3265,0.305,0.30721771596052205,1
0.305,0.3265,0.305,0.30721771596052205,1
0.2942,0.3294,0.30393726984363073,0.30647316358859217,1
0.2942,0.3294,0.30287081074279837,0.30541555952505106,1
0.2942,0.3294,0.3018005831670973,0.30435428040361123,1
0.2942,0.3294,0.30072654688271205,0.30328928764465124,1
0.2942,0.3294,0.2996486609347687,0.30222054198879333,1
0.2942,0.3294,0.2985668836291125,0.30114800348001647,1
0.2942,0.3294,0.29748117251348866,0.3000716314482261,1
0.2942,0.3294,0.29639148435810364,0.2989913844912592,1
0.2942,0.3294,0.2952977751355401,0.29790722045630247,1
0.2923,0.3157,0.29401055253170766,0.2962321555807202,1
0.2923,0.3157,0.2938209829130657,0.29604400855278257,1
0.2923,0.3157,0.2936312909074917,0.2958557418743128,1
0.2923,0.3157,0.2934414762776387,0.2956673553167478,1
0.2923,0.3157,0.29325153878539156,0.295478848650796,1
0.2923,0.3157,0.29306147819186334,0.2952902216464338,1
0.2923,0.3157,0.2928712942573922,0.2951014740729026,1
0.2923,0.3157,0.2926809867415374,0.29491260569870525,1
0.2923,0.3157,0.2924905554030762,0.29472361629160293,1
0.2923,0.3157,0.2923,0.29472361629160293,1
0.2923,0.3157,0.2923,0.29472361629160293,1
0.304,0.3109,0.2934909896402273,0.29539619665798,1
0.304,0.3109,0.2946771657254766,0.2965747528027293,1
0.304,0.3109,0.2958585861522359,0.2977486439935537,1
0.304,0.3109,0.297035307665604,0.29891792519017657,1
0.304,0.3109,0.2982073858910943,0.3000826502815516,1
0.304,0.3109,0.29937487536531854,0.3012428721148436,1
0.304,0.3109,0.30053782956559727,0.30239864252340815,1
0.304,0.3109,0.30169630093854316,0.30355001235381296,1
0.304,0.3109,0.3028503409276602,0.30469703149193955,1
0.2336,0.3109,0.2977100871653495,0.2984218105299946,1
0.2336,0.3109,0.29128438337816875,0.29201176859845906,1
0.2336,0.3333,0.2847136947882908,0.2879742644751437,1
0.2336,0.3333,0.2779877407368893,0.28132627499044593,1
0.2336,0.3333,0.27109496491082236,0.27451733825024605,1
0.2336,0.3333,0.26402230208828953,0.2675351659128198,1
0.2336,0.3333,0.25675488700314936,0.26036582148968784,1
0.2336,0.3333,0.24927568674060452,0.25299339319436787,1
0.2336,0.3333,0.24156503058182904,0.24539957823924638,1
0.2336,0.3333,0.2336,0.24539957823924638,1
0.2336,0.3333,0.2336,0.24539957823924638,1
0.2336,0.3333,0.2336,0.24539957823924638,1
0.2903,0.2923,0.23987386893949078,0.2462245032485597,1
0.2903,0.2923,0.2459877761190584,0.2521844939721711,1
0.2903,0.2923,0.2519533667169383,0.2580068448704414,1
0.2903,0.2923,0.2577809380074485,0.2637006731125274,1
0.2903,0.2923,0.26347964817040426,0.26927413169482134,1
0.2903,0.2923,0.26905768526470303,0.27473454642618206,1
0.2903,0.2923,0.27452240527869487,0.2800885288618582,1
0.2903,0.2923,0.2798804459050328,0.28534207015440255,1
0.2903,0.2923,0.28513782106202606,0.2905006196206817,1
0.2903,0.2923,0.2903,0.2905006196206817,1
0.2903,0.2923,0.2903,0.2905006196206817,1
0.3089,0.304,0.29221328169677707,0.29360312157741103,1
0.3089,0.304,0.2941141173082312,0.2954950168784577,1
0.3089,0.304,0.2960027466088786,0.2973748762084652,1
0.3089,0.304,0.2978794017719251,0.2992429263992718,1
0.3089,0.304,0.29974430770241495,0.3010993872461384,1
0.3089,0.304,0.3015976823518377,0.30294447180960404,1
0.3089,0.304,0.303439737015441,0.3047783867008945,1
0.3089,0.304,0.305270676613395,0.30660133235196485,1
0.3089,0.304,0.3070906999568694,0.3084135032711765,1
0.3304,0.304,0.31111686710945136,0.3106338423288744,1
0.3304,0.2884,0.31331804927262014,0.31135788893169225,1
0.3304,0.2884,0.31550387477810793,0.3135573791190378,1
0.3304,0.2884,0.31767466061994937,0.3157415477886938,1
0.3304,0.2884,0.31983071303425503,0.31791071073494837,1
0.3304,0.2884,0.3219723280035103,0.3200651730507398,1
0.3304,0.2884,0.3240997917308804,0.32220522962857073,1
0.3304,0.2884,0.32621338108667464,0.32433116563167347,1
0.3304,0.2884,0.3283133640289411,0.32644325693755727,1
0.3304,0.2884,0.3304,0.32644325693755727,1
0.3304,0.2884,0.3304,0.32644325693755727,1
0.3128,0.3089,0.32868241206368193,0.32658480215711205,1
0.3128,0.3089,0.3269558012943034,0.3248470424676821,1
0.3128,0.3089,0.325220023983764,0.32309993655214486,1
0.3128,0.3089,0.32347493256819765,0.3213433319675391,1
0.3128,0.3089,0.3217203754815663,0.3195770720812118,1
0.3128,0.3089,0.31995619700202715,0.3178009959078165,1
0.3128,0.3089,0.31818223709063337,0.3160149379380665,1
0.3128,0.3089,0.31639833122189504,0.31421872795872624,1
0.3128,0.3089,0.3146043102056932,0.31241219086328886,1
0.3128,0.3089,0.3128,0.31241219086328886,1
0.3118,0.3255,0.3127001439078659,0.31399366394881284,1
0.3118,0.3255,0.31260025591800145,0.31389418758556203,1
0.3118,0.3255,0.3125003359998194,0.3137946796872121,1
0.3118,0.3255,0.31240038412268323,0.31369514022375294,1
0.3118,0.3255,0.3123004002559075,0.3135955691651271,1
0.3118,0.3255,0.31220038436875763,0.31349596648122924,1
0.3118,0.3255,0.31210033643044993,0.31339633214190626,1
0.3118,0.3255,0.31200025641015106,0.31329666611695695,1
0.3118,0.3255,0.3119001442769785,0.3131969683761323,1
0.2326,0.3255,0.30480746710013523,0.3062363352053443,1
0.2326,0.3118,0.2976507080455211,0.2976507080455211,1
0.2326,0.3118,0.29031757783503226,0.29031757783503226,1
0.2326,0.3118,0.28279435637933087,0.28279435637933087,1
0.2326,0.3118,0.2750654467576762,0.2750654467576762,1
0.2326,0.3118,0.26711299481680034,0.26711299481680034,1
0.2326,0.3118,0.25891640349734507,0.25891640349734507,1
0.2326,0.3118,0.25045170392712446,0.25045170392712446,1
0.2326,0.3118,0.2416907279975796,0.2416907279975796,1
0.2326,0.3118,0.2326,0.2416907279975796,1
0.2542,0.2972,0.23484941558368844,0.24202635393692148,1
0.2542,0.2972,0.23707748944174348,0.24418895142901123,1
0.2542,0.2972,0.23928481773819252,0.24633256382378682,1
0.2542,0.2972,0.24147196938775317,0.24845768251354192,1
0.2542,0.2972,0.2436394877683008,0.25056477805150507,1
0.2542,0.2972,0.24578789229740344,0.25265430136849043,1
0.2542,0.2972,0.2479176798858847,0.25472668489971756,1
0.2542,0.2972,0.2500293262799386,0.2567823436297753,1
0.2542,0.2972,0.2521232873020658,0.25882167606288314,1
0.2542,0.2972,0.2542,0.25882167606288314,1
0.2542,0.2972,0.2542,0.25882167606288314,1
0.2258,0.3372,0.25150435383905384,0.2610805622791555,1
0.2258,0.3372,0.24877950076322605,0.2584566888281284,1
0.2258,0.3372,0.2460244703276485,0.255805902981147,1
0.2258,0.3372,0.24323823712566245,0.25312735924826457,1
0.2258,0.3372,0.2404197163295889,0.25042016691951946,1
0.2258,0.3372,0.23756775875526545,0.24768338660475392,1
0.2258,0.3372,0.23468114538667137,0.24491602642538524,1
0.2258,0.3372,0.23175858128664836,0.2421170378143595,1
0.2258,0.3372,0.22879868880743176,0.23928531087386037,1
0.2239,0.346,0.2256107200467212,0.24036063113579975,1
0.2239,0.346,0.22542128116040863,0.24018282619704515,1
0.2239,0.346,0.22523168294003398,0.24000488953352594,1
0.2239,0.346,0.22504192498287956,0.23982682085204732,1
0.2239,0.346,0.2248520068845284,0.23964861985832506,1
0.2239,0.346,0.22466192823885403,0.23947028625698008,1
0.2239,0.346,0.22447168863801065,0.23929181975153266,1
0.2239,0.346,0.22428128767242264,0.23911322004439653,1
0.2239,0.346,0.22409072493077442,0.23893448683687335,1
0.2239,0.346,0.2239,0.23893448683687335,1
0.2239,0.346,0.2239,0.23893448683687335,1
0.2551,0.3148,0.22721287375498772,0.23774455409115053,1
0.2551,0.3148,0.23047813345304582,0.24086708575477886,1
0.2551,0.3148,0.233697774914525,0.24394965259249704,1
0.2551,0.3148,0.23687365830754586,0.24699375093309547,1
0.2551,0.3148,0.24000752071549755,0.2500007859987644,1
0.2551,0.3148,0.24310098724604143,0.25297207948704536,1
0.2551,0.3148,0.24615558088331044,0.25590887636031695,1
0.2551,0.3148,0.24917273125283995,0.2588123509417586,1
0.2551,0.3148,0.2521537824423818,0.26168361240245824,1
0.2551,0.3148,0.2551,0.26168361240245824,1
0.2551,0.3148,0.2551,0.26168361240245824,1
0.2551,0.3148,0.2551,0.26168361240245824,1
0.3021,0.3304,0.26018233990799605,0.26852125614185557,1
0.3021,0.3304,0.26516728682098023,0.2733541750184182,1
0.3021,0.3304,0.27006023402196777,0.27810311936402293,1
0.3021,0.3304,0.2748660946715691,0.28277232007394215,1
0.3021,0.3304,0.27958935959724934,0.28736566426767135,1
0.3021,0.3304,0.28423414643564554,0.29188673316887837,1
0.3021,0.3304,0.28880424165860163,0.29633883478207845,1
0.3021,0.3304,0.29330313670330904,0.30072503221381486,1
0.3021,0.3304,0.29773405918705365,0.305048168327561,1
0.3578,0.3216,0.3081234379270749,0.3100907415580155,1
0.3578,0.3216,0.3140313614911734,0.3159618821946723,1
0.3578,0.3216,0.31983017212264386,0.321725898864235,1
0.3578,0.3216,0.3255257009822727,0.3273884497046284,1
0.3578,0.3216,0.3311232776474647,0.33295471163508106,1
0.3578,0.3216,0.336627788514258,0.3384294357764998,1
0.3578,0.3216,0.3420437267368019,0.3438169949260798,1
0.3578,0.3216,0.3473752351564515,0.34912142443568256,1
0.3578,0.3216,0.3526261433870155,0.3543464575807129,1
0.3578,0.3216,0.3578,0.3543464575807129,1
0.3578,0.3216,0.3578,0.3543464575807129,1
0.2405,0.3069,0.34785454000199567,0.3429569331563367,1
0.2405,0.3069,0.33761623479921693,0.33256788630293216,1
0.2405,0.3069,0.3270575836148735,0.321843657697336,1
0.2405,0.3069,0.31614649136120426,0.31074954706322583,1
0.2405,0.3069,0.3048451164115968,0.29924441849431377,1
0.2405,0.3069,0.29310831786218555,0.2872788941081471,1
0.2405,0.3069,0.280881517725891,0.2747928383346262,1
0.2405,0.3069,0.2680976836901058,0.26171175938425084,1
0.2405,0.3069,0.2546729451669337,0.2479414971318839,1
0.303,0.3069,0.24746136062019866,0.25469955045111486,1
0.303,0.3069,0.25423217734976034,0.2612828658752808,1
0.303,0.3157,0.2608272895998423,0.2687256947148895,1
0.303,0.3157,0.2672597051558652,0.27497340598683356,1
0.303,0.3157,0.2735409018775803,0.2810822815475924,1
0.303,0.3157,0.2796810683618039,0.28706118511564743,1
0.303,0.3157,0.28568929801446885,0.29291807557745564,1
0.303,0.3157,0.29157374710354156,0.2986601312529009,1
0.303,0.3157,0.29734176464129625,0.3042938530434028,1
0.303,0.3157,0.303,0.3042938530434028,1
0.303,0.3157,0.303,0.3042938530434028,1
0.2483,0.3021,0.2979821957768618,0.29789080214065017,1
0.2483,0.3021,0.29287843553256016,0.29278544875044593,1
0.2483,0.3021,0.28768414450574087,0.28758947824981357,1
0.2483,0.3021,0.2823943271384891,0.28229788699173786,1
0.2483,0.3021,0.2770035108080762,0.27690519316184736,1
0.2483,0.3021,0.27150567949860643,0.2714053702490059,1
0.2483,0.3021,0.2658941951227969,0.2657917681193306,1
0.2483,0.3021,0.26016170356145807,0.2600570187478123,1
0.2483,0.3021,0.2543000216279975,0.25419292279683947,1
0.2483,0.3021,0.2483,0.25419292279683947,1
0.2483,0.3021,0.2483,0.25419292279683947,1
0.3324,0.3245,0.2579468491763371,0.2662730046399747,1
0.3324,0.3245,0.2672456996847657,0.27529075538419373,1
0.3324,0.3245,0.27623169803626807,0.28402233538931404,1
0.3324,0.3245,0.2849344450922001,0.2924933742839314,1
0.3324,0.3245,0.29337914888417,0.3007258901391764,1
0.3324,0.3245,0.30158748647780464,0.30873896417523977,1
0.3324,0.3245,0.30957825989561993,0.31654926156919083,1
0.3324,0.3245,0.31736790322904423,0.32417143921079783,1
0.3324,0.3245,0.32497088023390647,0.33161846902728437,1
0.3187,0.3245,0.33105551347168344,0.3302708010103224,1
0.3187,0.3245,0.3297055443877157,0.32891761126458396,1
0.3187,0.3148,0.32835002512562717,0.32661088010046446,1
0.3187,0.3148,0.3269888866613053,0.32524246340230545,1
0.3187,0.3148,0.32562205852798115,0.32386826488558584,1
0.3187,0.3148,0.3242494687736589,0.3224882106372262,1
0.3187,0.3148,0.3228710439169174,0.3211022251557905,1
0.3187,0.3148,0.3214867089010057,0.319710231303285,1
0.3187,0.3148,0.32009638704615206,0.31831215025506016,1
0.3187,0.3148,0.3187,0.31831215025506016,1
0.3187,0.3148,0.3187,0.31831215025506016,1
0.3255,0.3177,0.3193865150566003,0.3192868710110079,1
0.3255,0.3177,0.3200715576242288,0.3199721269110795,1
0.3255,0.3177,0.32075513713734966,0.3206559183922854,1
0.3255,0.3177,0.32143726293010894,0.32133825480325245,1
0.3255,0.3177,0.32211794423782103,0.32201914539356197,1
0.3255,0.3177,0.32279719019842784,0.3226985993152124,1
0.3255,0.3177,0.32347500985392985,0.32337662562405467,1
0.3255,0.3177,0.3241514121517906,0.3240532332812003,1
0.3255,0.3177,0.3248264059463147,0.32472843115440325,1
0.3255,0.3177,0.3255,0.32472843115440325,1
0.3255,0.3177,0.3255,0.32472843115440325,1
0.3255,0.3177,0.3255,0.32472843115440325,1
0.3529,0.3109,0.3283429091666211,0.32692494857382787,1
0.3529,0.3109,0.331161413815076,0.32975557311439035,1
0.3529,0.3109,0.33395613184967876,0.3325621054780596,1
0.3529,0.3109,0.33672765553188533,0.3353451505538734,1
0.3529,0.3109,0.33947655294585516,0.33810528833486175,1
0.3529,0.3109,0.34220336935804707,0.34084307532939556,1
0.3529,0.3109,0.3449086284800657,0.3435590458713029,1
0.3529,0.3109,0.3475928336430427,0.346253713337489,1
0.3529,0.3109,0.3502564688910113,0.34892757128091784,1
0.3099,0.3109,0.3488386016483841,0.3448193875059812,1
0.3099,0.3109,0.344729357612606,0.3406616649991601,1
0.3099,0.3118,0.3405705360127326,0.3365358420733221,1
0.3099,0.3118,0.33636029789498045,0.3322744844251511,1
0.3099,0.3118,0.3320966877281374,0.32795776099979707,1
0.3099,0.3118,0.32777762278715733,0.323583456004784,1
0.3099,0.3118,0.32340088126039485,0.31914920178499584,1
0.3099,0.3118,0.3189640888877618,0.31465246383907436,1
0.3099,0.3118,0.31446470390172565,0.3100905238797213,1
0.3099,0.3118,0.3099,0.3100905238797213,1
0.3099,0.3118,0.3099,0.3100905238797213,1
0.3382,0.2942,0.31284522211470644,0.31132570725849157,1
0.3382,0.2942,0.3157629743969359,0.3142575679279657,1
0.3382,0.2942,0.3186540114293244,0.3171623275233047,1
0.3382,0.2942,0.3215190538677296,0.32004072397118466,1
0.3382,0.2942,0.3243587905391189,0.32289346230606775,1
0.3382,0.2942,0.3271738803755581,0.3257212166869085,1
0.3382,0.2942,0.3299649541996847,0.32852463225761325,1
0.3382,0.2942,0.33273261637537127,0.33130432686579875,1
0.3382,0.2942,0.3354774463358156,0.33406089265282163,1
0.3382,0.2942,0.33820000000000006,0.33406089265282163,1
0.3382,0.2942,0.33820000000000006,0.33406089265282163,1
0.3627,0.2913,0.340729284036462,0.33636897895019985,1
0.3627,0.2913,0.3432399306607552,0.3389119280875195,1
0.3627,0.2913,0.34573234589780577,0.3414359383544738,1
0.3627,0.2913,0.34820692124080477,0.3439414266993728,1
0.3627,0.2913,0.350664034369081,0.34642879499256407,1
0.3627,0.2913,0.3531040498210124,0.3488984307789303,1
0.3627,0.2913,0.35552731962537,0.35135070798277895,1
0.3627,0.2913,0.3579341838941903,0.35378598756875607,1
0.3627,0.2913,0.360324971380003,0.35620461816208954,1
0.3627,0.2913,0.3627,0.35620461816208954,1
0.3079,0.3099,0.35759810122538405,0.3525976091807771,1
0.3079,0.3099,0.35242235173155523,0.3473473564027802,1
0.3079,0.3099,0.3471694485406226,0.34201651714500575,1
0.3079,0.3099,0.3418358348681425,0.3366012626238945,1
0.3079,0.3099,0.3364176719496168,0.33109745091135934,1
0.3079,0.3099,0.33091080671383344,0.3255005898612167,1
0.3079,0.3099,0.32531073452931125,0.31980579419391386,1
0.3079,0.3099,0.31961255607375627,0.31400773557350464,1
0.3079,0.3099,0.3138109271520034,0.30810058422534675,1
0.3079,0.3099,0.3079,0.30810058422534675,1
0.3079,0.3099,0.3079,0.30810058422534675,1
0.346,0.2864,0.3119194912152814,0.309864525236433,1
0.346,0.2864,0.3158878408549465,0.3138588584061313,1
0.346,0.2864,0.31980695270741066,0.317802992433992,1
0.346,0.2864,0.3236786152960989,0.3216987736998697,1
0.346,0.2864,0.32750451141930853,0.3255479380982162,1
0.346,0.2864,0.3312862266983039,0.32935212007819226,1
0.346,0.2864,0.3350252572568223,0.3331128607544296,1
0.346,0.2864,0.33872301663748805,0.3368316152026113,1
0.346,0.2864,0.34238084204581304,0.34050975903782843,1
0.3167,0.2864,0.34318258842779303,0.3376465385577053,1
0.3167,0.2864,0.3403418546109191,0.3347588296072263,1
0.3167,0.3109,0.33747720960088545,0.33404363188062725,1
0.3167,0.3109,0.33458803923631214,0.3311245037746376,1
0.3167,0.3109,0.3316737026054372,0.32817941129814954,1
0.3167,0.3109,0.32873353038593434,0.3252076490490345,1
0.3167,0.3109,0.3257668230498618,0.3222084790938935,1
0.3167,0.3109,0.32277284892010355,0.31918112882813104,1
0.3167,0.3109,0.3197508420630038,0.3161247886515703,1
0.3167,0.3109,0.3167,0.3161247886515703,1
0.3167,0.3109,0.3167,0.3161247886515703,1
0.2962,0.3128,0.3147100967557285,0.31431980529390763,1
0.2962,0.3128,0.3127075310893551,0.31231473708424323,1
0.2962,0.3128,0.3106920581540506,0.31029671284111277,1
0.2962,0.3128,0.30866342510896877,0.3082654781191043,1
0.2962,0.3128,0.30662137074900697,0.30622077003364745,1
0.2962,0.3128,0.30456562511222435,0.3041623168638745,1
0.2962,0.3128,0.30249590906324664,0.3020898376311259,1
0.2962,0.3128,0.30041193385083753,0.30000304165124725,1
0.2962,0.3128,0.29831340063765155,0.29790162805865966,1
0.2962,0.3128,0.2962,0.29790162805865966,1
0.2962,0.3128,0.2962,0.29790162805865966,1
0.2933,0.3206,0.29591127893339925,0.2984434234490685,1
0.2933,0.3206,0.29562227588596907,0.2981568748159264,1
0.2933,0.3206,0.2953329900298983,0.2978700505253927,1
0.2933,0.3206,0.29504342053331745,0.2975829497803932,1
0.2933,0.3206,0.29475356656027085,0.2972955717800048,1
0.2933,0.3206,0.2944634272706884,0.29700791571942997,1
0.2933,0.3206,0.29417300182035744,0.29671998078996975,1
0.2933,0.3206,0.2938822893608936,0.2964317661789978,1
0.3099,0.3206,0.29529164735901353,0.29782906003276444,1
0.3099,0.3206,0.296694310697054,0.2995053605530292,1
0.3099,0.3206,0.2983769863779712,0.3011723310664511,1
0.3099,0.305,0.3000502257956158,0.3012144568243696,1
0.3099,0.305,0.3017141859442476,0.3028720208272795,1
0.3099,0.305,0.30336901951254025,0.3045205625241094,1
0.3099,0.305,0.30501487504710323,0.3061602276586559,1
0.3099,0.305,0.3066518971081053,0.3077911580926262,1
0.3099,0.305,0.30828022641745934,0.3094134919488806,1
0.3099,0.305,0.3099,0.3094134919488806,1
0.3099,0.305,0.3099,0.3094134919488806,1
0.3099,0.305,0.3099,0.3094134919488806,1
0.2903,0.3255,0.3079961330926088,0.3096011014192295,1
0.2903,0.3255,0.3060804240718442,0.30769538508076455,1
0.2903,0.3255,0.3041526491747195,0.3057777918685397,1
0.2903,0.3255,0.3022125775013343,0.30384809691686404,1
0.2903,0.3255,0.30025997069206545,0.3019060681735298,1
0.2903,0.3255,0.29829458258573854,0.29995146607409673,1
0.2903,0.3255,0.2963161588573934,0.29798404319694705,1
0.2903,0.3255,0.2943244366341334,0.29600354389770406,1
0.2903,0.3255,0.2923191440874169,0.29400970392148623,1
0.2903,0.3255,0.2903,0.29400970392148623,1
0.2903,0.3255,0.2903,0.29400970392148623,1
0.3069,0.3284,0.2920024691676425,0.29601129877084087,1
0.3069,0.3284,0.2936950697577336,0.2976811062193904,1
0.3069,0.3284,0.29537797141967104,0.2993415991806017,1
0.3069,0.3284,0.29705133899715047,0.30099293181069886,1
0.3069,0.3284,0.2987153327166184,0.30263525406006486,1
0.3069,0.3284,0.3003701083663286,0.3042687118321567,1
0.3069,0.3284,0.30201581746656914,0.30589344713478256,1
0.3069,0.3284,0.30365260743158456,0.30750959822418555,1
0.3069,0.3284,0.3052806217236856,0.30911729974234703,1
0.3069,0.3284,0.3069,0.30911729974234703,1
0.3236,0.3284,0.30861066896657996,0.31081576536591576,1
0.3236,0.3284,0.3103119076026571,0.31250499996000064,1
0.3236,0.3196,0.31200387016830416,0.3132763476549099,1
0.3236,0.3196,0.31368670676329274,0.3149523852902213,1
0.3236,0.3196,0.31536056348250013,0.31661955088086396,1
0.3236,0.3196,0.31702558256393126,0.3182779838443118,1
0.3236,0.3196,0.3186819025297797,0.31992781998444586,1
0.3236,0.3196,0.32032965832092414,0.32156919162133674,1
0.3236,0.3196,0.32196898142522984,0.32320222771509477,1
0.3236,0.3196,0.3236,0.32320222771509477,1
0.3236,0.3196,0.3236,0.32320222771509477,1
0.3236,0.3196,0.3236,0.32320222771509477,1
0.3099,0.3284,0.3222562101806573,0.32274142126476424,0
0.3099,0.3284,0.32090679332167465,0.3213940416373645,0
0.3099,0.3284,0.3195516781367296,0.32004098956227467,0
0.3099,0.3284,0.3181907918215108,0.3186821927877364,0
0.3099,0.3284,0.31682406000807456,0.3173175775150188,0
0.3099,0.3284,0.3154514067174214,0.31594706835164654,0
0.3099,0.3284,0.31407275431020754,0.31457058826279355,0
0.3099,0.3284,0.31268802343550034,0.31318805852075526,0
0.3099,0.3284,0.31129713297748185,0.3117993986524028,0
0.3099,0.3284,0.3099,0.3117993986524028,0
0.3099,0.3284,0.3099,0.3117993986524028,0
0.305,0.3079,0.3094134919488806,0.30921375939631146,0
0.305,0.3079,0.3089262177284408,0.30872616993057134,0
0.305,0.3079,0.30843817370747095,0.30823780916688337,0
0.305,0.3079,0.3079493562259873,0.3077486734333716,0
0.305,0.3079,0.3074597615949118,0.3072587590289331,0
0.305,0.3079,0.30696938609574737,0.30676806222291136,0
0.305,0.3079,0.3064782259802481,0.3062765792547644,0
0.305,0.3079,0.3059862774700853,0.30578430633372927,0
0.305,0.3079,0.30549353675650814,0.3052912396384803,0
0.305,0.3079,0.305,0.3052912396384803,0
0.304,0.3196,0.3049001475893378,0.3063919320086611,0
0.304,0.3196,0.3048002624670786,0.30629253337291784,0
0.304,0.3196,0.3047003446010523,0.306193102469667,0
0.304,0.3196,0.30460039395903615,0.30609363926746336,0
0.304,0.3196,0.3045004105087545,0.3059941437348107,0
0.304,0.3196,0.30440039421787873,0.30589461584016153,0
0.304,0.3196,0.3043003450540272,0.305795055551917,0
0.304,0.3196,0.3042002629847647,0.3056954628384268,0
0.304,0.3196,0.30410014797760293,0.3055958376679892,0
0.304,0.3196,0.304,0.3055958376679892,0
0.304,0.3196,0.304,0.3055958376679892,0
0.304,0.3196,0.304,0.3055958376679892,0
0.3069,0.3148,0.30429124371233557,0.3053874015083137,0
0.3069,0.3148,0.30458220893545307,0.3056773233329551,0
0.3069,0.3148,0.3048728964667079,0.3059669704396212,0
0.3069,0.3148,0.3051633070996577,0.3062563436077692,0
0.3069,0.3148,0.3054534416240878,0.3065454436131778,0
0.3069,0.3148,0.30574330082603607,0.3068342712279709,0
0.3069,0.3148,0.30603288548781815,0.3071228272206415,0
0.3069,0.3148,0.30632219638805147,0.30741111235607604,0
0.3118,0.3148,0.3071052132413255,0.30819136263042807,0
0.3118,0.3148,0.30788623873112614,0.30868281293262834,0
0.3118,0.3148,0.30837817529779893,0.30917348204527506,0
0.3118,0.3128,0.3088693283574787,0.30946063562269116,0
0.3118,0.3128,0.309359701641956,0.30995007339892666,0
0.3118,0.3128,0.30984929885349105,0.3104387395284294,0
0.3118,0.3128,0.31033812366514046,0.31092663764946227,0
0.3118,0.3128,0.31082617972107823,0.3114137713717876,0
0.3118,0.3128,0.3113134706369129,0.3119001442769785,0
0.3118,0.3128,0.3118,0.3119001442769785,0
0.3128,0.3128,0.3119001442769785,0.31200025641015106,0
0.3128,0.3128,0.31200025641015106,0.3121003364304499,0
0.3128,0.3128,0.3121003364304499,0.31220038436875763,0
0.3128,0.3128,0.31220038436875763,0.3123004002559075,0
0.3128,0.3128,0.3123004002559075,0.31240038412268323,0
0.3128,0.3128,0.31240038412268323,0.3125003359998194,0
0.3128,0.3128,0.3125003359998194,0.31260025591800145,0
0.3128,0.3128,0.31260025591800145,0.3127001439078659,0
0.3128,0.3128,0.3127001439078659,0.3128,0
0.3128,0.3128,0.3128,0.3128,0
0.3128,0.3128,0.3128,0.3128,0
0.3148,0.3079,0.3130005750793439,0.3125143468706677,0
0.3148,0.3079,0.3132010217097001,0.312715105167627,0
0.3148,0.3079,0.3134013401375304,0.3129157346635033,0
0.3148,0.3079,0.31360153060850965,0.3131162356058849,0
0.3148,0.3079,0.313801593367529,0.3133166082415677,0
0.3148,0.3079,0.3140015286586994,0.3135168528165591,0
0.3148,0.3079,0.31420133672535516,0.3137169695760815,0
0.3148,0.3079,0.31440101781005736,0.3139169587645752,0
0.3148,0.3079,0.31460057215459736,0.3141168206257029,0
0.3148,0.3079,0.3148,0.3141168206257029,0
0.3148,0.3079,0.3148,0.3141168206257029,0
0.3167,0.3069,0.31499051573023595,0.31420993300658084,0
0.3167,0.3069,0.3151809163004639,0.31440080629667605,0
0.3167,0.3069,0.31537120191926216,0.31459156377754316,0
0.3167,0.3069,0.3155613727945802,0.3147822056597228,0
0.3167,0.3069,0.3157514291337412,0.3149727321531183,0
0.3167,0.3069,0.3159413711434449,0.3151631434669987,0
0.3167,0.3069,0.3161311990297699,0.31535343981000113,0
0.3167,0.3069,0.3163209129981766,0.31554362139013364,0
0.3167,0.3069,0.3165105132535095,0.3157336884147778,0
0.3177,0.306,0.3168001420454227,0.3157467988753013,0
0.3177,0.306,0.3169002524454659,0.31584724314136414,0
0.3177,0.306,0.3170003312301108,0.3159476554747637,0
0.3177,0.306,0.3171003784292917,0.3160480359059363,0
0.3177,0.306,0.31720039407289513,0.3161483844652697,0
0.3177,0.306,0.31730037819076107,0.31624870118310366,0
0.3177,0.306,0.31740033081268204,0.3163489860897297,0
0.3177,0.306,0.3175002519684039,0.31644923921539136,0
0.3177,0.306,0.31760014168762585,0.3165494605902843,0
0.3177,0.306,0.3177,0.3165494605902843,0
0.3177,0.306,0.3177,0.3165494605902843,0
0.3177,0.306,0.3177,0.3165494605902843,0
0.3284,0.304,0.3187861618703045,0.31744745706967004,0
0.3284,0.304,0.3198686355365277,0.31853448008025753,0
0.3284,0.304,0.32094745831677807,0.31961780613726765,0
0.3284,0.304,0.32202266690405507,0.3206974727059757,0
0.3284,0.304,0.32309429738081114,0.32177351662310555,0
0.3284,0.304,0.3241623852330804,0.32284597411149485,0
0.3284,0.304,0.32522696536418993,0.3239148807943223,0
0.3284,0.304,0.32628807210806837,0.3249802717089147,0
0.3284,0.304,0.3273457392421658,0.3260421813201476,0
0.3284,0.304,0.3284,0.3260421813201476,0
0.3284,0.304,0.3284,0.3260421813201476,0
0.3275,0.303,0.32831011102309965,0.32585851684435074,0
0.3275,0.303,0.3282201974284947,0.32576792659806153,0
0.3275,0.303,0.328130259195948,0.32567731115323345,0
0.3275,0.303,0.3280402963051948,0.325586670488827,0
0.3275,0.303,0.3279503087359425,0.3254960045837737,0
0.3275,0.303,0.3278602964678706,0.32540531341697543,0
0.3275,0.303,0.32777025948063077,0.3253145969673049,0
0.3275,0.303,0.3276801977538466,0.3252238552136052,0
0.3275,0.303,0.32759011126711385,0.32513308813468983,0
0.3275,0.303,0.3275,0.32513308813468983,0
0.3196,0.303,0.3267185960425271,0.3243459819390399,0
0.3196,0.303,0.3259353187367089,0.323556960982143,0
0.3196,0.303,0.3251501545440199,0.3227660112217518,0
0.3196,0.303,0.3243630897620751,0.3219731184431396,0
0.3196,0.303,0.32357411052184015,0.3211782682561197,0
0.3196,0.303,0.3227832027847794,0.32038144609199826,0
0.3196,0.303,0.321990352339942,0.3195826372004587,0
0.3196,0.303,0.32119554480098256,0.31878182664637583,0
0.3196,0.303,0.3203987656031153,0.317978999306558,0
0.3196,0.303,0.3196,0.317978999306558,0
0.3196,0.303,0.3196,0.317978999306558,0
0.3196,0.303,0.3196,0.317978999306558,0
0.3177,0.306,0.3194105085935652,0.3180758667362238,0
0.3177,0.306,0.31922090470393694,0.3178854667958257,0
0.3177,0.306,0.319031188130565,0.3176949527455543,0
0.3177,0.306,0.31884135867230273,0.3175043243799996,0
0.3177,0.306,0.318651416127404,0.3173135814931343,0
0.3177,0.306,0.3184613602935213,0.3171227238783118,0
0.3177,0.306,0.31827119096770284,0.3169317513282631,0
0.3177,0.306,0.31808090794639027,0.3167406636350944,0
0.3177,0.306,0.31789051102541577,0.3165494605902843,0
0.3177,0.306,0.3177,0.3165494605902843,0
0.3118,0.3157,0.31711493973006066,0.3169151384834748,0
0.3118,0.3157,0.31652879805793344,0.31632862658950106,0
0.3118,0.3157,0.3159415689648958,0.3157410252089519,0
0.3118,0.3157,0.3153532463761869,0.3151523282477856,0
0.3118,0.3157,0.3147638241602742,0.314562529554936,0
0.3118,0.3157,0.31417329612810824,0.3139716229215628,0
0.3118,0.3157,0.31358165603236426,0.31337960208028853,0
0.3118,0.3157,0.3129888975666709,0.31278646070442373,0
0.3118,0.3157,0.31239501436482625,0.3121921924071773,0
0.3118,0.3157,0.3118,0.3121921924071773,0
0.3118,0.3157,0.3118,0.3121921924071773,0
0.3109,0.3167,0.3117101169355913,0.31220371874787145,0
0.3109,0.3167,0.3116202079455054,0.31211395194704133,0
0.3109,0.3167,0.3115302730072954,0.3120241593210372,0
0.3109,0.3167,0.3114403120984822,0.3119343408475572,0
0.3109,0.3167,0.3113503251965541,0.3118444965042673,0
0.3109,0.3167,0.31126031227896694,0.31175462626880135,0
0.3109,0.3167,0.3111702733231438,0.3116647301187608,0
0.3109,0.3167,0.3110802083064752,0.3115748080317149,0
0.3109,0.3167,0.310990117206319,0.3114848599852006,0
0.3109,0.3167,0.3109,0.3114848599852006,0
0.3109,0.3167,0.3109,0.3114848599852006,0
0.3109,0.3167,0.3109,0.3114848599852006,0
0.3079,0.3187,0.31060130392514457,0.31139084443830395,0
0.3079,0.3187,0.3103023203264842,0.31109261964887563,0
0.3079,0.3187,0.3100030483721088,0.3107941086957731,0
0.3079,0.3187,0.3097034872260886,0.31049531075364084,0
0.3079,0.3187,0.30940363604844723,0.3101962249931485,0
0.3079,0.3187,0.30910349399513426,0.3098968505809635,0
0.3079,0.3187,0.3088030602179972,0.30959718667972425,0
0.3079,0.3187,0.3085023338647538,0.30929723244801266,0
0.3079,0.3187,0.3082013140789637,0.30899698704032696,0
0.3079,0.3187,0.3079,0.30899698704032696,0
0.304,0.3265,0.3075122257732203,0.30942487456570134,0
0.304,0.3265,0.30712396194370767,0.30903901371833303,0
0.304,0.3265,0.30673520665225246,0.30865267048901424,0
0.304,0.3265,0.306345958027848,0.308265843064067,0
0.304,0.3265,0.305956214187586,0.3078785296184195,0
0.304,0.3265,0.30556597323655005,0.3074907283155055,0
0.304,0.3265,0.30517523326770807,0.307102437307163,0
0.304,0.3265,0.30478399236180365,0.30671365473353157,0
0.304,0.3265,0.3043922485872464,0.3063243787229479,0
0.304,0.3265,0.304,0.3063243787229479,0
0.304,0.3265,0.304,0.3063243787229479,0
0.305,0.3284,0.30410014797760293,0.30662673725557593,0
0.305,0.3284,0.3042002629847647,0.3067260275881393,0
0.305,0.3284,0.3043003450540272,0.3068252857898123,0
0.305,0.3284,0.30440039421787873,0.30692451189176795,0
0.305,0.3284,0.3045004105087545,0.30702370592512884,0
0.305,0.3284,0.3046003939590361,0.30712286792096744,0
0.305,0.3284,0.3047003446010523,0.3072219979103059,0
0.305,0.3284,0.3048002624670786,0.3073210959241165,0
0.305,0.3284,0.30490014758933787,0.30742016199332145,0
0.305,0.3284,0.305,0.30742016199332145,0
0.305,0.3284,0.305,0.30742016199332145,0
0.305,0.3284,0.305,0.30742016199332145,0
0.3069,0.3265,0.30519053229089527,0.3074068737032404,0
0.3069,0.3265,0.30538094570552365,0.30759591512242157,0
0.3069,0.3265,0.3055712404661145,0.30778484043240334,0
0.3069,0.3265,0.3057614167942057,0.307973649846866,0
0.3069,0.3265,0.30595147491064656,0.3081623435788351,0
0.3069,0.3265,0.30614141503560083,0.30835092184068463,0
0.3069,0.3265,0.30633123738854967,0.30853938484413945,0
0.3069,0.3265,0.30652094218829484,0.30872773280027827,0
0.3069,0.3265,0.3067105296529612,0.30891596591953613,0
0.3069,0.3265,0.3069,0.30891596591953613,0
0.3089,0.3206,0.30710058612773766,0.30849707454042413,0
0.3089,0.3206,0.30730104132592845,0.30869662291641614,0
0.3089,0.3206,0.3075013658506251,0.308896042383194,0
0.3089,0.3206,0.3077015599570467,0.3090953331902635,0
0.3089,0.3206,0.3079016238995826,0.30929449558632627,0
0.3089,0.3206,0.3081015579317963,0.30949352981928396,0
0.3089,0.3206,0.308301362306429,0.3096924361362415,0
0.3089,0.3206,0.3085010372754037,0.3098912147835108,0
0.3089,0.3206,0.3087005830898283,0.31008986600661426,0
0.3089,0.3206,0.3089,0.31008986600661426,0
0.3089,0.3206,0.3089,0.31008986600661426,0
0.3089,0.3177,0.3089,0.30979124906943384,0
0.3089,0.3177,0.3089,0.30979124906943384,0
0.3089,0.3177,0.3089,0.30979124906943384,0
0.3089,0.3177,0.3089,0.30979124906943384,0
0.3089,0.3177,0.3089,0.30979124906943384,0
0.3089,0.3177,0.3089,0.30979124906943384,0
0.3089,0.3177,0.3089,0.30979124906943384,0
0.3089,0.3177,0.3089,0.30979124906943384,0
0.3089,0.3177,0.3089,0.30979124906943384,0
0.3089,0.3177,0.3089,0.30979124906943384,0
0.3118,0.3196,0.3091912240022346,0.3102768247871568,0
0.3118,0.3196,0.30948217396160316,0.31056675771885184,0
0.3118,0.3196,0.30977285065027893,0.31085642023287857,0
0.3118,0.3196,0.3100632548368155,0.31114581308447653,0
0.3118,0.3196,0.31035338728617096,0.31143493702537617,0
0.3118,0.3196,0.3106432487597309,0.3117237928038218,0
0.3118,0.3196,0.31093284001533195,0.3120123811645942,0
0.3118,0.3196,0.31122216180728524,0.312300702849033,0
0.3118,0.3196,0.3115112148863986,0.3125887585950589,0
0.3118,0.3196,0.3118,0.3125887585950589,0
0.3089,0.3167,0.3115112148863986,0.3120051313680594,0
0.3089,0.3167,0.3112221618072852,0.31171653629539775,0
0.3089,0.3167,0.31093284001533195,0.3114276737863866,0
0.3089,0.3167,0.3106432487597308,0.3111385430961584,0
0.3089,0.3167,0.31035338728617096,0.3108491434763815,0
0.3089,0.3167,0.3100632548368155,0.3105594741752375,0
0.3089,0.3167,0.30977285065027893,0.31026953443739846,0
0.3089,0.3167,0.30948217396160316,0.3099793235040041,0
0.3089,0.3167,0.3091912240022346,0.3096888406126382,0
0.3089,0.3167,0.3089,0.3096888406126382,0
0.3089,0.3167,0.3089,0.3096888406126382,0
0.3089,0.3167,0.3089,0.3096888406126382,0
0.3099,0.3148,0.3090001456310337,0.3095950144947428,0
0.3099,0.3148,0.3091002588158088,0.3096949353799639,0
0.3099,0.3148,0.309200339585842,0.30979482403681313,0
0.3099,0.3148,0.30930038797259857,0.30989468049645513,0
0.3099,0.3148,0.3094004040074932,0.3099945047900043,0
0.3099,0.3148,0.30950038772188965,0.31009429694852503,0
0.3099,0.3148,0.30960033914710106,0.3101940570030316,0
0.3099,0.3148,0.3097002583143902,0.31029378498448856,0
0.3099,0.3148,0.3098001452549692,0.31039348092381064,0
0.3099,0.3148,0.3099,0.31039348092381064,0
0.3099,0.3148,0.3099,0.31039348092381064,0
0.3109,0.3128,0.31000014516125635,0.3102912712275355,0
0.3109,0.3128,0.31010025798118906,0.31039129014841893,0
0.3109,0.3128,0.3102003384911112,0.3104912768500912,0
0.3109,0.3128,0.3103003867222856,0.3105912313636688,0
0.3109,0.3128,0.31040040270592434,0.3106911537202178,0
0.3109,0.3128,0.31050038647318945,0.3107910439507548,0
0.3109,0.3128,0.3106003380551927,0.31089090208624637,0
0.3109,0.3128,0.310700257482996,0.31099072815760925,0
0.3109,0.3128,0.3108001447876111,0.31109052219571076,0
0.3109,0.3128,0.3109,0.31109052219571076,0
0.3118,0.3089,0.310990117206319,0.31079075436698567,0
0.3118,0.3089,0.31108020830647526,0.3108809032410965,0
0.3118,0.3089,0.3111702733231438,0.3109710259815213,0
0.3118,0.3089,0.31126031227896694,0.31106112261097496,0
0.3118,0.3089,0.31135032519655415,0.31115119315213946,0
0.3118,0.3089,0.3114403120984822,0.311241237627664,0
0.3118,0.3089,0.3115302730072954,0.311331256060165,0
0.3118,0.3089,0.3116202079455054,0.31142124847222613,0
0.3118,0.3089,0.3117101169355913,0.3115112148863986,0
0.3118,0.3089,0.3118,0.3115112148863986,0
0.3118,0.3089,0.3118,0.3115112148863986,0
0.3148,0.3069,0.3121012976583084,0.3116152387159524,0
0.3148,0.3069,0.3124023047290145,0.31191671484548567,0
0.3148,0.3069,0.31270302205127476,0.3122178998712278,0
0.3148,0.3069,0.3130034504602146,0.31251879463481874,0
0.3148,0.3069,0.3133035907869554,0.3128193999738507,0
0.3148,0.3069,0.31360344385864136,0.31311971672189537,0
0.3148,0.3069,0.3139030104984659,0.31341974570853065,0
0.3148,0.3069,0.31420229152569845,0.3137194877593676,0
0.3148,0.3069,0.3145012877557102,0.3140189436960771,0
0.3177,0.305,0.315091201083115,0.31412586808475357,0
0.3177,0.305,0.3153821332922967,0.3144176935224861,0
0.3177,0.305,0.31567279737094867,0.3147092483547314,0
0.3177,0.305,0.31596319405905493,0.3150005333328818,0
0.3177,0.305,0.3162533240932022,0.31529154920485897,0
0.3177,0.305,0.3165431882066016,0.31558229671513577,0
0.3177,0.305,0.3168327871291101,0.31587277660475904,0
0.3177,0.305,0.3171221215872522,0.3161629896113712,0
0.3177,0.305,0.3174111923042412,0.31645293646923234,0
0.3177,0.305,0.3177,0.31645293646923234,0
0.3177,0.305,0.3177,0.31645293646923234,0
0.3216,0.303,0.31809215174222705,0.31665468258025176,0
0.3216,0.303,0.3184838206251614,0.3170481272614617,0
0.3216,0.303,0.3188750084280673,0.3174410842975433,0
0.3216,0.303,0.31926571691930844,0.31783355549721304,0
0.3216,0.303,0.3196559478564414,0.31822554265803366,0
0.3216,0.303,0.32004570298630786,0.3186170475665105,0
0.3216,0.303,0.32043498404512577,0.31900807199818626,0
0.3216,0.303,0.32082379275857953,0.31939861771773526,0
0.3216,0.303,0.3212121308419095,0.31978868647905606,0
0.3216,0.303,0.3216,0.31978868647905606,0
0.3216,0.303,0.3216,0.31978868647905606,0
0.3216,0.3001,0.3216,0.3195151091889083,0
0.3216,0.3001,0.3216,0.3195151091889083,0
0.3216,0.3001,0.3216,0.3195151091889083,0
0.3216,0.3001,0.3216,0.3195151091889083,0
0.3216,0.3001,0.3216,0.3195151091889083,0
0.3216,0.3001,0.3216,0.3195151091889083,0
0.3216,0.3001,0.3216,0.3195151091889083,0
0.3216,0.3001,0.3216,0.3195151091889083,0
0.3216,0.3001,0.3216,0.3195151091889083,0
0.3196,0.2991,0.32140056004929424,0.3192205272221697,0
0.3196,0.2991,0.32120099626246496,0.3190195997113657,0
0.3196,0.2991,0.3210013084085484,0.31881854557098777,0
0.3196,0.2991,0.32080149625586224,0.3186173645613183,0
0.3196,0.2991,0.3206015595720021,0.3184160564418823,0
0.3196,0.2991,0.3204014981238384,0.3182146209714444,0
0.3196,0.2991,0.32020131167751326,0.31801305790800477,0
0.3196,0.2991,0.3200009999984375,0.3178113670087966,0
0.3196,0.2991,0.31980056285128705,0.31760954803028196,0
0.3196,0.2991,0.3196,0.31760954803028196,0
0.3196,0.2991,0.3196,0.31760954803028196,0
0.3177,0.305,0.3194105085935652,0.31797980596257996,0
0.3177,0.305,0.31922090470393694,0.3177893484684469,0
0.3177,0.305,0.319031188130565,0.3175987767608685,0
0.3177,0.305,0.31884135867230273,0.3174080906341235,0
0.3177,0.305,0.318651416127404,0.3172172898818726,0
0.3177,0.305,0.3184613602935213,0.31702637429715524,0
0.3177,0.305,0.31827119096770284,0.31683534367238764,0
0.3177,0.305,0.31808090794639027,0.31664419779935965,0
0.3177,0.305,0.31789051102541577,0.31645293646923234,0
0.3177,0.305,0.3177,0.31645293646923234,0
0.3177,0.305,0.3177,0.31645293646923234,0
0.3128,0.3079,0.3172134060849257,0.3162455643957714,0
0.3128,0.3079,0.31672606460473063,0.3157567291444475,0
0.3128,0.3079,0.3162379721032881,0.3152671359339568,0
0.3128,0.3079,0.3157491250977586,0.31477678122758673,0
0.3128,0.3079,0.31525952007829994,0.31428566146103454,0
0.3128,0.3079,0.31476915350777307,0.3137937730421049,0
0.3128,0.3079,0.31427802182144393,0.31330111235040325,0
0.3128,0.3079,0.31378612142668133,0.3128076757370254,0
0.3128,0.3079,0.3132934487026501,0.31231345952424144,0
0.3118,0.3118,0.3127001439078659,0.31260025591800145,0
0.3118,0.3118,0.31260025591800145,0.3125003359998194,0
0.3118,0.3118,0.3125003359998194,0.31240038412268323,0
0.3118,0.3118,0.31240038412268323,0.3123004002559075,0
0.3118,0.3118,0.3123004002559075,0.31220038436875763,0
0.3118,0.3118,0.31220038436875763,0.31210033643044993,0
0.3118,0.3118,0.31210033643044993,0.31200025641015106,0
0.3118,0.3118,0.31200025641015106,0.3119001442769785,0
0.3118,0.3118,0.3119001442769785,0.3118,0
0.3118,0.3118,0.3118,0.3118,0
0.3118,0.3118,0.3118,0.3118,0
0.303,0.3187,0.3109312078257826,0.31163000657831397,0
0.303,0.3187,0.3100599812939426,0.31076073915473945,0
0.303,0.3187,0.30918629982584933,0.30988903336517093,0
0.303,0.3187,0.30831014255129524,0.30901486857431315,0
0.303,0.3187,0.3074314883026786,0.30813822385416584,0
0.303,0.3187,0.30655031560903667,0.3072590779781779,0
0.303,0.3187,0.30566660268992424,0.3063774094152505,0
0.303,0.3187,0.3047803274491318,0.3054931963235843,0
0.303,0.3187,0.3038914674682394,0.3046064165443663,0
0.303,0.3187,0.303,0.3046064165443663,0
0.303,0.3187,0.303,0.3046064165443663,0
0.3001,0.3148,0.30271125020388656,0.3039129891926306,0
0.3001,0.3148,0.3024222247124043,0.3036251076574531,0
0.3001,0.3148,0.30213292273434883,0.30333695290880736,0
0.3001,0.3148,0.30184334347472364,0.3030485241673353,0
0.3001,0.3148,0.3015534861347154,0.3027598206499667,0
0.3001,0.3148,0.3012633499116678,0.3024708415698941,0
0.3001,0.3148,0.3009729339990558,0.302181586136548,0
0.3001,0.3148,0.30068223758645934,0.3018920535555714,0
0.3001,0.3148,0.30039125985953713,0.30160224302879446,0
0.304,0.3284,0.3004922777709936,0.30343741364571375,0
0.304,0.3284,0.30088404411001923,0.30382538241562373,0
0.304,0.3284,0.3012753010122137,0.3042128564015663,0
0.304,0.3284,0.3016660504597758,0.3045998374917491,0
0.304,0.3284,0.3020562944220828,0.30498632756240074,0
0.304,0.3284,0.30244603485580696,0.3053723284778763,0
0.304,0.3284,0.3028352737050293,0.30575784209076307,0
0.304,0.3284,0.30322401290135315,0.30614287024198356,0
0.304,0.3284,0.30361225436401607,0.3065274147608987,0
0.304,0.3284,0.304,0.3065274147608987,0
0.304,0.3284,0.304,0.3065274147608987,0
0.3206,0.3177,0.30570056591377126,0.3070904834083922,0
0.3206,0.3177,0.30739172402652615,0.3087740290244631,0
0.3206,0.3177,0.30907362876829203,0.3104484449953003,0
0.3206,0.3177,0.31074643038979544,0.31211387825599807,0
0.3206,0.3177,0.31241027511911323,0.31377047184207757,0
0.3206,0.3177,0.3140653053108541,0.315418365032856,0
0.3206,0.3177,0.31571165958830216,0.3170576934881095,0
0.3206,0.3177,0.31734947297892274,0.3186885893784087,0
0.3177,0.2796,0.3186885893784087,0.31644657210973226,0
0.3177,0.2796,0.32002210236169626,0.31615395932994417,0
0.3177,0.2796,0.31973276184964217,0.315861075474646,0
0.3177,0.2796,0.31944315926311523,0.31556791978906856,0
0.3177,0.2796,0.3191532938886891,0.3152744915149337,0
0.3177,0.2796,0.318863165009695,0.31498078989043127,0
0.3177,0.2796,0.3185727719062004,0.314686814150196,0
0.3177,0.2796,0.3182821138549887,0.3143925635252844,0
0.3177,0.2796,0.317991190129538,0.3140980372431512,0
0.3177,0.2796,0.3177,0.3140980372431512,0
0.3177,0.2796,0.3177,0.3140980372431512,0
0.2776,0.3324,0.3139205902772228,0.315439033729182,0
0.2776,0.3324,0.31009512089034874,0.31163220469008013,0
0.2776,0.3324,0.3062218656464623,0.3077782935815975,0
0.2776,0.3324,0.30229898775880804,0.3038755090493474,0
0.2776,0.3324,0.29832452966526235,0.29992194317855436,0
0.2776,0.3324,0.2942964016089901,0.29591556059119295,0
0.2776,0.3324,0.2902123687922346,0.29185418619577824,0
0.2776,0.3324,0.28607003687908317,0.2877354913805386,0
0.2776,0.3324,0.281866835580208,0.28355697840116717,0
0.2776,0.3324,0.2776,0.28355697840116717,1
0.2776,0.3324,0.2776,0.28355697840116717,1
0.3177,0.304,0.281866835580208,0.284577470998672,1
0.3177,0.304,0.28607003687908317,0.28874121631661803,1
0.3177,0.304,0.2902123687922346,0.2928457665734644,1
0.3177,0.304,0.2942964016089901,0.29689357689246154,1
0.3177,0.304,0.29832452966526235,0.3008869372372287,1
0.3177,0.304,0.30229898775880804,0.30482798756019763,1
0.3177,0.304,0.3062218656464623,0.30871873121014215,1
0.3177,0.304,0.3100951208903487,0.31256104683725383,1
0.3177,0.304,0.3139205902772228,0.3163566989965599,1
0.3011,0.3265,0.3160792337373653,0.3169747276992284,1
0.3011,0.3265,0.31445011369055026,0.315350233867045,1
0.3011,0.3265,0.3128125093406592,0.31371732817936593,1
0.3011,0.3265,0.3111662867342797,0.31207587859365227,1
0.3011,0.3265,0.3095113083556076,0.31042574957628755,1
0.3011,0.3265,0.3078474329923834,0.30876680197197365,1
0.3011,0.3265,0.30617451559527287,0.3070988928667767,1
0.3011,0.3265,0.3044924071302928,0.3054218754444416,1
0.3011,0.3265,0.30280095442385907,0.30373559883556617,1
0.3011,0.3265,0.3011,0.30373559883556617,1
0.3011,0.3265,0.3011,0.30373559883556617,1
0.2737,0.3245,0.298473211528271,0.30091553964526324,1
0.2737,0.3245,0.2958230991657007,0.29828712677552816,1
0.2737,0.3245,0.2931490303582804,0.29563534633057664,1
0.2737,0.3245,0.29045034343240156,0.29295956376264626,1
0.2737,0.3245,0.287726345682838,0.2902591152746111,1
0.2737,0.3245,0.2849763112962198,0.2875333058968995,1
0.2737,0.3245,0.2821994790923612,0.2847814073987275,1
0.2737,0.3245,0.2793950500635256,0.28200265601586094,1
0.2737,0.3245,0.2765621846890858,0.27919624997481607,1
0.2737,0.3245,0.2737,0.27919624997481607,1
0.2737,0.3245,0.2737,0.27919624997481607,1
0.3392,0.2786,0.2809380447714407,0.2814192815000422,1
0.3392,0.2786,0.28799423605343216,0.2884637013559938,1
0.3392,0.2786,0.2948816287936568,0.29534014627205696,1
0.3392,0.2786,0.30161178690495505,0.30206008839302156,1
0.3392,0.2786,0.3081950113158875,0.30863375058473436,1
0.3392,0.2786,0.31464052504405726,0.315070288983268,1
0.3392,0.2786,0.32095662479531406,0.32137794261585534,1
0.3392,0.2786,0.3271508062041113,0.32756415707461034,1
0.3392,0.2786,0.3332298681090877,0.3336356875395676,1
0.2776,0.3353,0.3335523227321315,0.33315776593079743,1
0.2776,0.3353,0.327807358062628,0.32740587807795996,1
0.2776,0.3353,0.32195989812397446,0.3215511172426555,1
0.2776,0.3353,0.3160042531359349,0.31558775800084515,1
0.2776,0.3353,0.3099341865622442,0.3095095232783638,1
0.2776,0.3353,0.3037428385987067,0.30330950693969355,1
0.2776,0.3353,0.2974226353188338,0.2969800818236806,1
0.2776,0.3353,0.2909651800473727,0.29051278973566724,1
0.2776,0.3353,0.2843611225185328,0.2838982088707148,1
0.2776,0.3353,0.2776,0.2838982088707148,1
0.2776,0.3353,0.2776,0.2838982088707148,1
0.3314,0.2845,0.28343990544734526,0.28412326374304514,1
0.3314,0.2845,0.28916189237173007,0.28983175981938214,1
0.3314,0.2845,0.2947728277843804,0.29542997309007085,1
0.3314,0.2845,0.3002789369902591,0.30092405852639964,1
0.3314,0.2845,0.3056858845285467,0.3063196190256184,1
0.3314,0.2845,0.31099884244157566,0.3116217723459001,1
0.3314,0.2845,0.31622254821565143,0.3168352079551766,1
0.3314,0.2845,0.32136135424160756,0.32196423559147064,1
0.3314,0.2845,0.32641927026448664,0.32701282696554884,1
0.3314,0.2845,0.3314,0.32701282696554884,1
0.3314,0.2845,0.3314,0.32701282696554884,1
0.3314,0.2845,0.3314,0.32701282696554884,1
0.2815,0.3284,0.3267531009799295,0.3264500712206998,1
0.2815,0.3284,0.3220391560043592,0.32173168634749044,1
0.2815,0.3284,0.3172551764747109,0.3169430658651487,1
0.2815,0.3284,0.3123979449356221,0.3120809766711197,1
0.2815,0.3284,0.30746398976140277,0.3071419297328191,1
0.2815,0.3284,0.3024495561246536,0.3021221507933505,1
0.2815,0.3284,0.2973505725570408,0.2970175466197241,1
0.2815,0.3284,0.29216261225557244,0.2918236659354412,1
0.2815,0.3284,0.28688084808854003,0.28653565397695274,1
0.3089,0.2972,0.28435883316682814,0.2859519277780795,1
0.3089,0.2972,0.28718920940731735,0.2887666895609672,1
0.3089,0.2972,0.2899919619575687,0.29155427796552735,1
0.3089,0.2972,0.29276788416764565,0.29431546510504675,1
0.3089,0.2972,0.2955177321244869,0.2970509872059004,1
0.3089,0.2972,0.29824222705713554,0.2997615469001987,1
0.3089,0.2972,0.3009420575459668,0.3024478153334886,1
0.3089,0.2972,0.3036178815550889,0.30511043410542354,1
0.3089,0.2972,0.3062703283049143,0.30775001705930094,1
0.3089,0.2972,0.3089,0.30775001705930094,1
0.3089,0.2972,0.3089,0.30775001705930094,1
0.3089,0.2972,0.3089,0.30775001705930094,1
0.3089,0.2972,0.3089,0.30775001705930094,1
0.2864,0.3138,0.30672428172546107,0.30722126879498435,1
0.2864,0.3138,0.3045330195561723,0.305033576840321,1
0.2864,0.3138,0.3023258755052237,0.3028300810685755,1
0.2864,0.3138,0.3001024991565382,0.3006104339506532,1
0.2864,0.3138,0.29786252701540017,0.2983742750305395,1
0.2864,0.3138,0.2956055818146877,0.2961212302419399,1
0.2864,0.3138,0.2933312717730587,0.29385091117776035,1
0.2864,0.3138,0.29103918980096133,0.2915629143083873,1
0.2864,0.3138,0.28872891264991113,0.289256820144314,1
0.3441,0.3519,0.29268232778902115,0.299739570293947,1
0.3441,0.3519,0.2988326120087967,0.30574792722110156,1
0.3441,0.3519,0.30485884438539745,0.31164046592186967,1
0.3441,0.3519,0.31076824162066496,0.31742363648600586,1
0.3441,0.3519,0.3165673467052469,0.3231033116512426,1
0.3441,0.3519,0.3222621138142056,0.3286848566636437,1
0.3441,0.3519,0.32785797992423493,0.3341731886312844,1
0.3441,0.3519,0.33335992560594324,0.33957282724034327,1
0.3441,0.3519,0.33877252692625476,0.3448879383220005,1
0.3441,0.3519,0.3441,0.3448879383220005,1
0.3441,0.3519,0.3441,0.3448879383220005,1
0.3441,0.3519,0.3441,0.3448879383220005,1
0.3412,0.2786,0.34381110075156096,0.33782745299930855,1
0.3412,0.2786,0.3435219585412263,0.3375331850351903,1
0.3412,0.2786,0.34323257275497615,0.33723866029860816,1
0.3412,0.2786,0.3429429427762,0.3369438781162228,1
0.3412,0.2786,0.3426530679856814,0.3366488378117471,1
0.3412,0.2786,0.3423629477615824,0.3363535387059277,1
0.3412,0.2786,0.34207258147942815,0.33605798011652693,1
0.3412,0.2786,0.34178196851209103,0.33576216135830433,1
0.3412,0.2786,0.34149110822977513,0.3354660817429983,1
0.3412,0.2786,0.3412,0.3354660817429983,1
0.3412,0.2786,0.3412,0.3354660817429983,1
0.3412,0.2786,0.3412,0.3354660817429983,1
0.3333,0.3099,0.34041825009831655,0.33741168029574786,1
0.3333,0.3099,0.339634700818394,0.33662113272936384,1
0.3333,0.3099,0.33884933967768033,0.335828724203276,1
0.3333,0.3099,0.3380621540486305,0.3350344415131077,1
0.3333,0.3099,0.33727313115633745,0.33423827129758793,1
0.3333,0.3099,0.3364822580761131,0.33344020003592845,1
0.3333,0.3099,0.33568952173101857,0.33264021404514516,1
0.3333,0.3099,0.334894908889341,0.33183829947732074,1
0.3333,0.3099,0.33409840616201686,0.33103444231680784,1
0.2796,0.3099,0.3283254741868197,0.32602535024135776,1
0.2796,0.3099,0.3232744097512205,0.3209380874872909,1
0.2796,0.3304,0.3181431611711935,0.3178405229041759,1
0.2796,0.3304,0.3129277840013571,0.31262009692276665,1
0.2796,0.3304,0.30762399938886437,0.30731100208095385,1
0.2796,0.3304,0.3022271529826531,0.301908560660343,1
0.2796,0.3304,0.2967321671137122,0.2964076685917556,1
0.2796,0.3304,0.2911334848484455,0.29080273898297454,1
0.2796,0.3304,0.28542500416046246,0.28508763564911055,1
0.2796,0.3304,0.2796,0.28508763564911055,1
0.2796,0.3304,0.2796,0.28508763564911055,1
0.304,0.3324,0.2821349747904361,0.2878046281768242,1
0.304,0.3324,0.2846473748341973,0.29026795896205976,1
0.304,0.3324,0.2871377927058715,0.2927105601101539,1
0.304,0.3324,0.2896067955003819,0.2951329463140298,1
0.304,0.3324,0.2920549263409197,0.29753561131400724,1
0.304,0.3324,0.29448270577404034,0.29991902907284823,1
0.304,0.3324,0.2968906330620756,0.30228365486741093,1
0.304,0.3324,0.2992791873819494,0.304629926304032,1
0.304,0.3324,0.3016488289385523,0.30695826426405265,1
0.304,0.3324,0.304,0.30695826426405265,1
0.304,0.3324,0.304,0.30695826426405265,1
0.2356,0.3891,0.2978676484615273,0.30760919524617597,1
0.2356,0.3891,0.29160636481393887,0.3015502495439193,1
0.2356,0.3891,0.28520765768120604,0.2953670411538836,1
0.2356,0.3891,0.27866206056799336,0.2890515957402761,1
0.2356,0.3891,0.27195896749325993,0.2825950477273089,1
0.2356,0.3891,0.2650864311880184,0.27598749428189673,1
0.2356,0.3891,0.25803091287673263,0.2692178170181164,1
0.2356,0.3891,0.2507769686394666,0.262273462248852,1
0.2356,0.3891,0.24330685152703777,0.25514016735904205,1
0.3021,0.3891,0.24307008248651252,0.26205383034788865,1
0.3021,0.3392,0.2503173385924355,0.26194216537243487,1
0.3021,0.3392,0.2573605933316132,0.26868085715212386,1
0.3021,0.3392,0.26421616150417443,0.27525462393936273,1
0.3021,0.3392,0.27089829272256405,0.28167501309132836,1
0.3021,0.3392,0.2774195198611662,0.2879522842416778,1
0.3021,0.3392,0.2837909353732074,0.2940956018032232,1
0.3021,0.3392,0.2900224129270012,0.30011319197929304,1
0.3021,0.3392,0.2961227870326767,0.30601247196805553,1
0.3021,0.3392,0.3021,0.30601247196805553,1
0.3021,0.3392,0.3021,0.30601247196805553,1
0.306,0.3255,0.30249226271096585,0.3049100736282749,1
0.306,0.3255,0.3028840174060031,0.30529872584077383,1
0.306,0.3255,0.30327526605379473,0.30568688391882304,1
0.306,0.3255,0.30366601061034143,0.30607454974237897,1
0.306,0.3255,0.3040562530190754,0.30646172517950754,1
0.306,0.3255,0.3044459952109733,0.3068484120864894,1
0.306,0.3255,0.3048352391046678,0.3072346123079234,1
0.306,0.3255,0.30522398660655753,0.30762032767682956,1
0.306,0.3255,0.3056122396109161,0.3080055600147504,1
0.306,0.3255,0.306,0.3080055600147504,1
0.306,0.3255,0.306,0.3080055600147504,1
0.306,0.3255,0.306,0.3080055600147504,1
0.2825,0.3363,0.30373183073230897,0.3069188720166943,1
0.2825,0.3363,0.30144659560194076,0.3046575438094386,1
0.2825,0.3363,0.2991439034979653,0.30237930484740516,1
0.2825,0.3363,0.2968233481382487,0.30008376997098657,1
0.2825,0.3363,0.2944845072325537,0.2977705391740425,1
0.2825,0.3363,0.292126941585332,0.2954391967901348,1
0.2825,0.3363,0.2897501941328081,0.2930893106205001,1
0.2825,0.3363,0.2873537889083768,0.2907204309985798,1
0.2825,0.3363,0.2849372299296812,0.2883320897853723,1
0.3089,0.3353,0.28524997107800026,0.2909115501316508,1
0.3089,0.3353,0.2879736828253581,0.2935827413183547,1
0.3089,0.3353,0.2906718734243132,0.29622984657188073,1
0.3089,0.3353,0.2933452471065451,0.2988535059188699,1
0.3089,0.3353,0.295994476299812,0.30145433153298695,1
0.3089,0.3353,0.29862020360317215,0.30403290940291317,1
0.3089,0.3353,0.3012230436072247,0.3065898008740669,1
0.3089,0.3353,0.30380358457398093,0.3091255440755422,1
0.3089,0.3353,0.3063623899893719,0.31164065524254053,1
0.3089,0.3353,0.3089,0.31164065524254053,1
0.3089,0.3353,0.3089,0.31164065524254053,1
0.3089,0.3353,0.3089,0.31164065524254053,1
0.2845,0.2571,0.30654740905771816,0.3017274167191308,1
0.2845,0.2571,0.3041766230333949,0.2993184558292388,1
0.2845,0.2571,0.30178721311546647,0.2968899493078201,1
0.2845,0.2571,0.29937873337964405,0.2944414135273773,1
0.2845,0.2571,0.2969507198172788,0.29197234458078386,1
0.2845,0.2571,0.294502689291626,0.28948221707041005,1
0.2845,0.2571,0.2920341384153572,0.28697048280267434,1
0.2845,0.2571,0.289544542341934,0.28443656937883355,1
0.2845,0.2571,0.2870333534626246,0.28187987867174913,1
0.2845,0.2571,0.28450000000000003,0.28187987867174913,1
0.2845,0.2571,0.28450000000000003,0.28187987867174913,1
0.2845,0.2571,0.28450000000000003,0.28187987867174913,1
0.2893,0.3314,0.284983638126823,0.2900073188731622,1
0.2893,0.3314,0.2854664568736579,0.29048178772515154,1
0.2893,0.3314,0.28594846039102917,0.2909554828491809,1
0.2893,0.3314,0.2864296527945387,0.29142840801816144,1
0.2893,0.3314,0.28691003816527577,0.2919005669744408,1
0.2893,0.3314,0.287389620550221,0.2923719634301484,1
0.2893,0.3314,0.287868403962644,0.29284260106753596,1
0.2893,0.3314,0.2883463923824954,0.2933124835393134,1
0.2893,0.3314,0.28882358975679256,0.2937816144689793,1
0.3284,0.3187,0.29344453820100314,0.29647464815730873,1
0.3284,0.3187,0.2975313496087429,0.30052025555692585,1
0.3284,0.3187,0.30156278119157875,0.304512119627446,1
0.3284,0.3187,0.3055410250686477,0.30845232694859026,1
0.3284,0.3187,0.3094681324466221,0.31234283247739175,1
0.3284,0.3187,0.3133460259840549,0.3161854708869464,1
0.3284,0.3187,0.317176510794857,0.319981966679374,1
0.3284,0.3187,0.32096128426961407,0.32373394323116633,1
0.3284,0.3187,0.3247019448663651,0.3274429309055244,1
0.3284,0.3187,0.3284,0.3274429309055244,1
0.3284,0.3187,0.3284,0.3274429309055244,1
0.3284,0.3187,0.3284,0.3274429309055244,1
0.2845,0.3206,0.3242775493308163,0.32349607261912783,1
0.2845,0.3206,0.32010201186496784,0.3193103161502929,1
0.2845,0.3206,0.31587128232873596,0.3150689559445678,1
0.2845,0.3206,0.3115831125077224,0.31076971538423753,1
0.2845,0.3206,0.3072350972789405,0.30641015812143046,1
0.2845,0.3206,0.3028246588374203,0.30198767193380593,1
0.2845,0.3206,0.29834902882362463,0.2974994504196604,1
0.2845,0.3206,0.2938052279997754,0.2929424721681716,1
0.2845,0.3206,0.289190043051278,0.28831347696561116,1
0.3079,0.3206,0.28692588938609215,0.2907075454817092,1
0.3079,0.3206,0.2893314397019446,0.29308205847509666,1
0.3079,0.3128,0.2917171541065077,0.2946001646299608,1
0.3079,0.3128,0.2940835153489566,0.2969435518747629,1
0.3079,0.3128,0.29643098690926356,0.29926859006584705,1
0.3079,0.3128,0.2987600140581065,0.30157570359695757,1
0.3079,0.3128,0.3010710248429762,0.30386530075018436,1
0.3079,0.3128,0.30336443100666893,0.30613777453950375,1
0.3079,0.3128,0.3056406288437452,0.3083935034983714,1
0.3079,0.3128,0.3079,0.3083935034983714,1
0.3079,0.3128,0.3079,0.3083935034983714,1
0.3079,0.3128,0.3079,0.3083935034983714,1
0.3353,0.304,0.31074873772873157,0.3103645227792636,1
0.3353,0.304,0.31357159629022524,0.3131908443744804,1
0.3353,0.304,0.3163692684190423,0.3159918875540953,1
0.3353,0.304,0.3191424164851798,0.31876831868929506,1
0.3353,0.304,0.3218916743253854,0.3215207753785127,1
0.3353,0.304,0.32461764893486617,0.32424986815725926,1
0.3353,0.304,0.32732092203218544,0.3269561820794952,1
0.3353,0.304,0.3300020515087747,0.3296402781821421,1
0.3353,0.304,0.3326615727732916,0.3323026948431204,1
0.3353,0.304,0.3353,0.3323026948431204,1
0.3353,0.304,0.3353,0.3323026948431204,1
0.3353,0.304,0.3353,0.3323026948431204,1
0.3216,0.3011,0.3339552919179452,0.3306805845525255,1
0.3216,0.3011,0.3326051472842836,0.32931701444049316,1
0.3216,0.3011,0.3312494996222636,0.32794777480568454,1
0.3216,0.3011,0.32988828108921964,0.3265727943353518,1
0.3216,0.3011,0.32852142243695465,0.3251920002091072,1
0.3216,0.3011,0.3271488529706317,0.32380531805391954,1
0.3216,0.3011,0.32577050050610784,0.32241267189736816,1
0.3216,0.3011,0.3243862913256354,0.3210139841190723,1
0.3216,0.3011,0.3229961501318553,0.31960917540020656,1
0.3343,0.3011,0.3228924790081057,0.3209096726494856,1
0.3343,0.3011,0.32417980504652044,0.32220492081903407,1
0.3343,0.3265,0.3254620392611095,0.3259495482432826,1
0.3343,0.3265,0.3267392415979446,0.3272248477729037,1
0.3343,0.3265,0.32801147083600596,0.32849519631190954,1
0.3343,0.3265,0.32927878461874827,0.32976065107893027,1
0.3343,0.3265,0.33054123948457625,0.3310212681988878,1
0.3343,0.3265,0.3317988908962777,0.33227710273204203,1
0.3343,0.3265,0.33305179326945533,0.33352820870205263,1
0.3343,0.3265,0.33429999999999993,0.33352820870205263,1
0.3343,0.3265,0.33429999999999993,0.33352820870205263,1
0.3343,0.3265,0.33429999999999993,0.33352820870205263,1
0.3206,0.2776,0.3329553678798406,0.32770383580300066,1
0.3206,0.2776,0.33160528343197426,0.32633202570388337,1
0.3206,0.2776,0.3302496797878841,0.32495442449672846,1
0.3206,0.2776,0.3288884887009577,0.32357095821473225,1
0.3206,0.2776,0.3275216405063946,0.32218155130298815,1
0.3206,0.2776,0.3261490640796015,0.3207861265703366,1
0.3206,0.2776,0.32477068679300475,0.31938460513932104,1
0.3206,0.2776,0.3233864344712066,0.3179769063941594,1
0.3206,0.2776,0.32199623134440564,0.31656294792663275,1
0.3206,0.2776,0.3206,0.31656294792663275,1
0.3206,0.2776,0.3206,0.31656294792663275,1
0.3206,0.2776,0.3206,0.31656294792663275,1
0.3558,0.2434,0.32429197954929445,0.3175078077780136,1
0.3558,0.2434,0.3279423973810035,0.3212353280696256,1
0.3558,0.2434,0.3315526262903071,0.32492008863719096,1
0.3558,0.2434,0.3351239651233555,0.32856352810377476,1
0.3558,0.2434,0.33865764423677197,0.3321670061881523,1
0.3558,0.2434,0.342154830449608,0.33573180963382065,1
0.3558,0.2434,0.34561663154425887,0.33925915757721264,1
0.3558,0.2434,0.34904410036555555,0.34275020641861037,1
0.3314,0.2434,0.35005134480530137,0.3437758921157794,1
0.3314,0.2434,0.35105569928431585,0.3413284283501742,1
0.3314,0.2981,0.34865934090455686,0.3432059629435363,1
0.3314,0.2981,0.3462463978151975,0.3407544056941891,1
0.3314,0.2981,0.34381652083633213,0.3382850824378752,1
0.3314,0.2981,0.34136934836039395,0.33579760124217684,1
0.3314,0.2981,0.3389045057239576,0.3332915555485917,1
0.3314,0.2981,0.3364216045381152,0.33076652339679113,1
0.3314,0.2981,0.33392024197403786,0.32822206659516356,1
0.3314,0.2981,0.3314,0.32822206659516356,1
0.3314,0.2981,0.3314,0.32822206659516356,1
0.3314,0.2981,0.3314,0.32822206659516356,1
0.3109,0.305,0.32940741491350795,0.3268472869705361,1
0.3109,0.305,0.3274027031042963,0.32482677537419846,1
0.3109,0.305,0.3253856404330099,0.32279361672746876,1
0.3109,0.305,0.3233559957693687,0.32074757052860114,1
0.3109,0.305,0.32131353068303864,0.318688388555341,1
0.3109,0.305,0.31925799911670183,0.31661581451342574,1
0.3109,0.305,0.31718914704005874,0.3145295836642398,1
0.3109,0.305,0.315106712083383,0.3124294224300906,1
0.3109,0.305,0.31301042314913413,0.3103150479754406,1
0.3109,0.305,0.3109,0.3103150479754406,1
0.3109,0.305,0.3109,0.3103150479754406,1
0.3069,0.2903,0.31050231883192114,0.3085015688776963,1
0.3069,0.2903,0.31010412767327045,0.30810079194964757,1
0.3069,0.2903,0.30970542455694894,0.307699493012257,1
0.3069,0.2903,0.3093062075031796,0.30729767002045427,1
0.3069,0.2903,0.30890647451939235,0.30689532091578064,1
0.3069,0.2903,0.30850622360010826,0.30649244362626626,1
0.3069,0.2903,0.3081054527268221,0.3060890360663054,1
0.3069,0.2903,0.30770415986788346,0.30568509613653067,1
0.3069,0.2903,0.3073023429783769,0.3052806217236856,1
0.2835,0.2942,0.30464089351234513,0.3033853605565041,1
0.2835,0.2942,0.30236490867823934,0.3010998854201044,1
0.2835,0.2942,0.3000716614410631,0.2987969293684258,1
0.2835,0.2942,0.2977607529544483,0.2964760850389117,1
0.2835,0.2942,0.29543176877241895,0.29413692899736343,1
0.2835,0.2942,0.29308427798160724,0.29177902083597446,1
0.2835,0.2942,0.29071783227039927,0.2894019022052205,1
0.2835,0.2942,0.28833196492931545,0.2870050957735768,1
0.2835,0.2942,0.28592618977631273,0.28458810410837626,1
0.2835,0.2942,0.28350000000000003,0.28458810410837626,1
0.2835,0.2942,0.28350000000000003,0.28458810410837626,1
0.2835,0.2942,0.28350000000000003,0.28458810410837626,1
0.3148,0.3245,0.286783766974353,0.29109745618950367,1
0.3148,0.3245,0.2900303570318114,0.2942964627718111,1
0.3148,0.3245,0.2932410049771348,0.29746106804084466,1
0.3148,0.3245,0.2964168787366874,0.300592358518975,1
0.3148,0.3245,0.29955908432227524,0.30369136471095126,1
0.3148,0.3245,0.30266867033110645,0.30675906506572875,1
0.3148,0.3245,0.30574663203378055,0.30979638958515965,1
0.3148,0.3245,0.3087939150954889,0.3128042231172719,1
0.3148,0.3245,0.3118114189698639,0.3157834083671908,1
0.3021,0.3245,0.31355314860482586,0.31454045526768093,1
0.3021,0.3245,0.31230131924152993,0.3132925709301132,0
0.3021,0.3226,0.3110444518071332,0.3118426253737613,0
0.3021,0.3226,0.3097824849793803,0.310583901707735,0
0.3021,0.3226,0.3085153561818277,0.3093200559291298,0
0.3021,0.3226,0.3072430015476349,0.308051024994237,0
0.3021,0.3226,0.3059653558820018,0.30677674455538506,0
0.3021,0.3226,0.3046823526231869,0.3054971489228664,0
0.3021,0.3226,0.30339392380204316,0.304212171025421,0
0.3021,0.3226,0.3021,0.304212171025421,0
0.3021,0.3226,0.3021,0.304212171025421,0
0.304,0.3284,0.30229053739738526,0.30502095665707957,0
0.304,0.3284,0.3024809547723625,0.3052096705545222,0
0.304,0.3284,0.30267125235145803,0.30539826784053636,0
0.304,0.3284,0.3028614303604868,0.3055867487310273,0
0.304,0.3284,0.30305148902455503,0.30577511344123476,0
0.304,0.3284,0.3032414285680636,0.3059633621857362,0
0.304,0.3284,0.30343124921471093,0.3061514951784492,0
0.304,0.3284,0.3036209511874963,0.3063395126326344,0
0.304,0.3284,0.3038105347087227,0.3065274147608987,0
0.304,0.3284,0.304,0.3065274147608987,0
0.304,0.3284,0.304,0.3065274147608987,0
0.305,0.3236,0.30410014797760293,0.3061159845548742,0
0.305,0.3236,0.3042002629847647,0.3062154404990055,0
0.305,0.3236,0.3043003450540272,0.30631486415125203,0
0.305,0.3236,0.30440039421787873,0.30641425554304746,0
0.305,0.3236,0.3045004105087545,0.30651361470577454,0
0.305,0.3236,0.3046003939590361,0.3066129416707651,0
0.305,0.3236,0.3047003446010523,0.30671223646930035,0
0.305,0.3236,0.3048002624670786,0.30681149913261074,0
0.305,0.3236,0.30490014758933787,0.3069107296918763,0
0.3069,0.3236,0.30519053229089527,0.3071000765222959,0
0.3069,0.3236,0.30538094570552365,0.3072893066802032,0
0.3069,0.3226,0.3055712404661145,0.3073733218742316,0
0.3069,0.3226,0.3057614167942057,0.30756238391584884,0
0.3069,0.3226,0.30595147491064656,0.3077513298102869,0
0.3069,0.3226,0.30614141503560083,0.3079401597713426,0
0.3069,0.3226,0.30633123738854967,0.3081288740121575,0
0.3069,0.3226,0.30652094218829484,0.30831747274522087,0
0.3069,0.3226,0.3067105296529612,0.3085059561823726,0
0.3069,0.3226,0.3069,0.3085059561823726,0
0.3069,0.3226,0.3069,0.3085059561823726,0
0.3069,0.3226,0.3069,0.3085059561823726,0
0.3109,0.3187,0.3073023429783769,0.3085011150709183,0
0.3109,0.3187,0.30770415986788346,0.30890137260944633,0
0.3109,0.3187,0.3081054527268221,0.30930111218681383,0
0.3109,0.3187,0.30850622360010826,0.3097003358086652,0
0.3109,0.3187,0.30890647451939235,0.31009904546773437,0
0.3109,0.3187,0.3093062075031796,0.31049724314396093,0
0.3109,0.3187,0.30970542455694894,0.3108949308046048,0
0.3109,0.3187,0.31010412767327045,0.31129211040435956,0
0.3109,0.3187,0.31050231883192114,0.31168878388546484,0
0.3109,0.3187,0.3109,0.31168878388546484,0
0.3109,0.3187,0.3109,0.31168878388546484,0
0.3236,0.3079,0.31219324944655674,0.31189579189209976,0
0.3236,0.3079,0.3134811637084436,0.3131849293947587,0
0.3236,0.3079,0.31476380827534794,0.3144687822344215,0
0.3236,0.3079,0.31604124730800565,0.31574741487461144,0
0.3236,0.3079,0.3173135436756522,0.31702089047884524,0
0.3236,0.3079,0.31858075899212746,0.31828927094704274,0
0.3236,0.3079,0.31984295365069404,0.31955261695063614,0
0.3236,0.3079,0.32110018685762237,0.32081098796643487,0
0.3236,0.3079,0.32235251666459813,0.3220644423092993,0
0.3236,0.3079,0.3236,0.3220644423092993,0
0.3099,0.3079,0.3222562101806573,0.32071421858096655,0
0.3099,0.3079,0.32090679332167465,0.3193582862554219,0
0.3099,0.3148,0.3195516781367296,0.3186714342390921,0
0.3099,0.3148,0.3181907918215108,0.3173067726979681,0
0.3099,0.3148,0.31682406000807456,0.31593621666406024,0
0.3099,0.3148,0.3154514067174214,0.3145596890893682,0
0.3099,0.3148,0.31407275431020754,0.3131771112326059,0
0.3099,0.3148,0.31268802343550034,0.31178840260663965,0
0.3099,0.3148,0.31129713297748185,0.31039348092381064,0
0.3099,0.3148,0.3099,0.31039348092381064,0
0.3099,0.3148,0.3099,0.31039348092381064,0
0.3109,0.3157,0.31000014516125635,0.31058483221174854,0
0.3109,0.3157,0.31010025798118906,0.3106847566263913,0
0.3109,0.3157,0.3102003384911112,0.31078464891303753,0
0.3109,0.3157,0.3103003867222856,0.31088450910265697,0
0.3109,0.3157,0.31040040270592434,0.31098433722616964,0
0.3109,0.3157,0.31050038647318945,0.31108413331444595,0
0.3109,0.3157,0.3106003380551927,0.31118389739830693,0
0.3109,0.3157,0.310700257482996,0.31128362950852395,0
0.3109,0.3157,0.3108001447876111,0.31138332967581933,0
0.3109,0.3157,0.3109,0.31138332967581933,0
0.3109,0.3157,0.3109,0.31138332967581933,0
0.3109,0.3157,0.3109,0.31138332967581933,0
0.3128,0.3118,0.31109052219571076,0.3111805842272297,0
0.3128,0.3118,0.31128092778067856,0.3113709347386169,0
0.3128,0.3118,0.31147121696875946,0.3115611689540274,0
0.3128,0.3118,0.3116613899731566,0.31175128708635674,0
0.3128,0.3118,0.31185144700642325,0.31194128934785154,0
0.3128,0.3118,0.3120413882804652,0.3121311759501124,0
0.3128,0.3118,0.3122312140065436,0.3123209471040968,0
0.3128,0.3118,0.31242092439527797,0.31251060302012157,0
0.3128,0.3118,0.3126105196566488,0.3127001439078659,0
0.3128,0.3118,0.3128,0.3127001439078659,0
0.3128,0.304,0.3128,0.31193117189533975,0
0.3128,0.304,0.3128,0.31193117189533975,0
0.3128,0.304,0.3128,0.31193117189533975,0
0.3128,0.304,0.3128,0.31193117189533975,0
0.3128,0.304,0.3128,0.31193117189533975,0
0.3128,0.304,0.3128,0.31193117189533975,0
0.3128,0.304,0.3128,0.31193117189533975,0
0.3128,0.304,0.3128,0.31193117189533975,0
0.3128,0.304,0.3128,0.31193117189533975,0
0.3128,0.304,0.3128,0.31193117189533975,0
0.3128,0.304,0.3128,0.31193117189533975,0
0.3245,0.2737,0.31398961925515945,0.31031639660191984,0
0.3245,0.2737,0.31517474835398857,0.31151550041691345,0
0.3245,0.2737,0.3163554377594923,0.31271000623580947,0
0.3245,0.2737,0.31753173699647724,0.31389996654985486,0
0.3245,0.2737,0.3187036946757913,0.31508543285908985,0
0.3245,0.2737,0.31987135851776416,0.3162664556983557,0
0.3245,0.2737,0.32103477537488057,0.31744308466243204,0
0.3245,0.2737,0.3221939912537166,0.318615368430338,0
0.3099,0.2737,0.3219136297207684,0.3183318551449101,0
0.3099,0.2737,0.3216330238019722,0.3168737067034752,0
0.3099,0.306,0.32018990927260654,0.31836324065444493,0
0.3099,0.306,0.3187402610276901,0.31690523662445214,0
0.3099,0.306,0.3172839895109742,0.31544049359586035,0
0.3099,0.306,0.31582100310144035,0.3139689172513738,0
0.3099,0.306,0.3143512080460325,0.31249041105288333,0
0.3099,0.306,0.31287450838954584,0.3110048761675611,0
0.3099,0.306,0.31139080590152307,0.30951221139076246,0
0.3099,0.306,0.3099,0.30951221139076246,0
0.3099,0.306,0.3099,0.30951221139076246,0
0.3157,0.2972,0.3104848756380897,0.30924074925533346,0
0.3157,0.2972,0.3110686515867518,0.3098268693964421,0
0.3157,0.2972,0.3116513340257025,0.31041188282667276,0
0.3157,0.2972,0.3122329290769953,0.3109957957915187,0
0.3157,0.2972,0.312813442805772,0.3115786144779516,0
0.3157,0.2972,0.3133928812210003,0.312160345015186,0
0.3157,0.2972,0.31397125027619965,0.31274099347543166,0
0.3157,0.2972,0.3145485558701549,0.3133205658746326,0
0.3157,0.2972,0.3151248038476184,0.3138990681731948,0
0.3157,0.2972,0.3156999999999999,0.3138990681731948,0
0.3187,0.2972,0.31600128164297053,0.31420207669587413,0
0.3187,0.2972,0.31630227631175845,0.31450479328620734,0
0.3187,0.2972,0.31660298482484334,0.31480721878635504,0
0.3187,0.2972,0.31690340799682165,0.31510935403443674,0
0.3187,0.2972,0.31720354663843214,0.3154111998645578,0
0.3187,0.2972,0.31750340155658174,0.31571275710683594,0
0.3187,0.2972,0.31780297355437065,0.31601402658742855,0
0.3187,0.2972,0.31810226343111736,0.3163150091285584,0
0.3187,0.2972,0.3184012719823839,0.31661570554854035,0
0.3167,0.2972,0.3185005651486352,0.31641495697896455,0
0.3167,0.2972,0.31830100533928574,0.3162140809641468,0
0.3167,0.3001,0.3181013203367757,0.3162870247101515,0
0.3167,0.3001,0.3179015099051906,0.31608606739304407,0
0.3167,0.3001,0.31770157380787395,0.3158849822324575,0
0.3167,0.3001,0.3175015118074243,0.3156837689840895,0
0.3167,0.3001,0.31730132366569164,0.31548242740285865,0
0.3167,0.3001,0.31710100914377426,0.315280957242901,0
0.3167,0.3001,0.31690056800201544,0.31507935825756656,0
0.3167,0.3001,0.3167,0.31507935825756656,0
0.3167,0.3001,0.3167,0.31507935825756656,0
0.3167,0.3001,0.3167,0.31507935825756656,0
0.3196,0.305,0.31699119388399416,0.3158417768440394,0
0.3196,0.305,0.3172821205173717,0.3161337612467229,0
0.3196,0.305,0.3175727806346129,0.31642547621833483,0
0.3196,0.305,0.3178631749668401,0.31671692250336103,0
0.3196,0.305,0.31815330424183874,0.31700810084286485,0
0.3196,0.305,0.31844316918407906,0.3172990119745096,0
0.3196,0.305,0.318732770514737,0.3175896566325799,0
0.3196,0.305,0.3190221089517151,0.31788003554800354,0
0.3196,0.305,0.31931118520966345,0.31817014944837296,0
0.3196,0.305,0.3196,0.31817014944837296,0
0.3196,0.305,0.3196,0.31817014944837296,0
0.3196,0.305,0.3196,0.31817014944837296,0
0.3109,0.3099,0.3187406861384345,0.31778138712013954,0
0.3109,0.3099,0.3178790493253684,0.3169171421681068,0
0.3109,0.3099,0.31701507061967893,0.316050533934053,0
0.3109,0.3099,0.3161487308214284,0.3151815429240742,0
0.3109,0.3099,0.3152800104668864,0.3143101493747855,0
0.3109,0.3099,0.31440888982342724,0.3134363332480777,0
0.3109,0.3099,0.31353534888430046,0.31256007422573984,0
0.3109,0.3099,0.31265936736326966,0.3116813517039478,0
0.3109,0.3099,0.31178092468911567,0.3108001447876111,0
0.3118,0.3099,0.310990117206319,0.3108902909387812,0
0.3118,0.3099,0.31108020830647526,0.31098041095863255,0
0.3118,0.3157,0.3111702733231438,0.3116531838438363,0
0.3118,0.3157,0.31126031227896694,0.3117430833234316,0
0.3118,0.3157,0.31135032519655415,0.3118329568855736,0
0.3118,0.3157,0.3114403120984822,0.3119228045526649,0
0.3118,0.3157,0.3115302730072954,0.3120126263470759,0
0.3118,0.3157,0.3116202079455054,0.3121024222911447,0
0.3118,0.3157,0.3117101169355913,0.3121921924071773,0
0.3118,0.3157,0.3118,0.3121921924071773,0
0.3118,0.3157,0.3118,0.3121921924071773,0
0.3118,0.3157,0.3118,0.3121921924071773,0
0.3069,0.3216,0.3113134706369129,0.3123088359300774,0
0.3069,0.3216,0.31082617972107823,0.3118231004912882,0
0.3069,0.3216,0.31033812366514046,0.3113366072276114,0
0.3069,0.3216,0.30984929885349105,0.3108493525809568,0
0.3069,0.3216,0.3093597016419559,0.31036133296530355,0
0.3069,0.3216,0.3088693283574787,0.30987254476639264,0
0.3069,0.3216,0.30837817529779893,0.30938298434141465,0
0.3069,0.3216,0.30788623873112614,0.30889264801869276,0
0.3069,0.3216,0.3073935148958091,0.3084015320973617,0
0.3069,0.3216,0.3069,0.3084015320973617,0
0.3069,0.3216,0.3069,0.3084015320973617,0
0.3069,0.3216,0.3069,0.3084015320973617,0
0.3069,0.3216,0.3069,0.3084015320973617,0
0.3069,0.3216,0.3069,0.3084015320973617,0
0.3069,0.3216,0.3069,0.3084015320973617,0
0.3069,0.3216,0.3069,0.3084015320973617,0
0.3069,0.3216,0.3069,0.3084015320973617,0
0.3069,0.3216,0.3069,0.3084015320973617,0
0.3069,0.3216,0.3069,0.3084015320973617,0
0.3069,0.3216,0.3069,0.3084015320973617,0
0.3069,0.3216,0.3069,0.3084015320973617,0
0.306,0.3236,0.30681011880314507,0.3085212861376019,0
0.306,0.3236,0.3067202112675329,0.3084318774056923,0
0.306,0.3236,0.30663027736999493,0.3083424427483184,0
0.306,0.3236,0.3065403170873287,0.3082529821429145,0
0.306,0.3236,0.30645033039629765,0.3081634955668825,0
0.306,0.3236,0.3063603172736313,0.30807398299759103,0
0.306,0.3236,0.30627027769602455,0.30798444441237616,0
0.306,0.3236,0.30618021164013853,0.3078948797885408,0
0.306,0.3236,0.3060901190825996,0.3078052891033551,0
0.306,0.3236,0.306,0.3078052891033551,0
0.306,0.3236,0.306,0.3078052891033551,0
0.306,0.3236,0.306,0.3078052891033551,0
0.306,0.3265,0.306,0.30811138408049776,0
0.306,0.3265,0.306,0.30811138408049776,0
0.306,0.3265,0.306,0.30811138408049776,0
0.306,0.3265,0.306,0.30811138408049776,0
0.306,0.3265,0.306,0.30811138408049776,0
0.306,0.3265,0.306,0.30811138408049776,0
0.306,0.3265,0.306,0.30811138408049776,0
0.306,0.3265,0.306,0.30811138408049776,0
0.306,0.3265,0.306,0.30811138408049776,0
0.306,0.3265,0.306,0.30811138408049776,0
0.306,0.3265,0.306,0.30811138408049776,0
0.3089,0.3187,0.3062912355912262,0.30758363090385676,0
0.3089,0.3187,0.3065821945253833,0.3078733684487828,0
0.3089,0.3187,0.30687287758940185,0.30816283357991114,0
0.3089,0.3187,0.30716328556648825,0.30845202706417735,0
0.3089,0.3187,0.30745341923615027,0.3087409496649254,0
0.3089,0.3187,0.30774327937422125,0.30902960214193076,0
0.3089,0.3187,0.30803286675288405,0.30931798525142373,0
0.3089,0.3187,0.3083221821406951,0.30960609974611286,0
0.3089,0.3187,0.30861122630260873,0.30989394637520756,0
0.3089,0.3187,0.3089,0.30989394637520756,0
0.3109,0.3187,0.3091005823352651,0.31009388578299957,0
0.3109,0.3187,0.30930103459251473,0.31029369635878845,0
0.3109,0.3187,0.30950135702448867,0.3104933783512943,0
0.3109,0.3187,0.3097015498831092,0.3106929320084382,0
0.3109,0.3187,0.30990161341948513,0.3108923575773454,0
0.3109,0.3187,0.310101547883915,0.3110916553043492,0
0.3109,0.3187,0.31030135352589105,0.31129082543499415,0
0.3109,0.3187,0.31050103059410283,0.31148986821404,0
0.3109,0.3187,0.3107005793364409,0.31168878388546484,0
0.3109,0.3187,0.3109,0.31168878388546484,0
0.3109,0.3187,0.3109,0.31168878388546484,0
0.3109,0.3187,0.3109,0.31168878388546484,0
0.3089,0.3167,0.3107005793364409,0.3112858140037866,0
0.3089,0.3167,0.31050103059410283,0.3110866406646226,0
0.3089,0.3167,0.31030135352589105,0.3108873397229292,0
0.3089,0.3167,0.310101547883915,0.3106879109331421,0
0.3089,0.3167,0.30990161341948513,0.31048835404890796,0
0.3089,0.3167,0.3097015498831092,0.3102886688230816,0
0.3089,0.3167,0.30950135702448867,0.31008885500772193,0
0.3089,0.3167,0.30930103459251473,0.3098889123540886,0
0.3089,0.3167,0.3091005823352651,0.3096888406126382,0
0.3089,0.3167,0.3089,0.3096888406126382,0
0.3089,0.3167,0.3089,0.3096888406126382,0
0.3089,0.3118,0.3089,0.3091912240022346,0
0.3089,0.3118,0.3089,0.3091912240022346,0
0.3089,0.3118,0.3089,0.3091912240022346,0
0.3089,0.3118,0.3089,0.3091912240022346,0
0.3089,0.3118,0.3089,0.3091912240022346,0
0.3089,0.3118,0.3089,0.3091912240022346,0
0.3089,0.3118,0.3089,0.3091912240022346,0
0.3089,0.3118,0.3089,0.3091912240022346,0
0.3089,0.3118,0.3089,0.3091912240022346,0
0.3069,0.3118,0.3087005830898283,0.3089919950419428,0
0.3069,0.3118,0.3085010372754037,0.3087926375417652,0
0.3069,0.3118,0.308301362306429,0.30859315125258374,0
0.3069,0.3118,0.3081015579317963,0.30839353592447427,0
0.3069,0.3118,0.3079016238995826,0.30819379130670366,0
0.3069,0.3118,0.3077015599570467,0.3079939171477255,0
0.3069,0.3118,0.3075013658506251,0.30779391319517674,0
0.3069,0.3118,0.30730104132592845,0.3075937791958739,0
0.3069,0.3118,0.30710058612773766,0.3073935148958091,0
0.3069,0.3118,0.3069,0.3073935148958091,0
0.3089,0.3079,0.30710058612773766,0.30720066731698353,0
0.3089,0.3079,0.30730104132592845,0.30740105725257355,0
0.3089,0.3079,0.3075013658506251,0.30760131664217566,0
0.3089,0.3079,0.3077015599570467,0.30780144574059426,0
0.3089,0.3079,0.3079016238995826,0.3080014448018061,0
0.3089,0.3079,0.3081015579317963,0.3082013140789637,0
0.3089,0.3079,0.308301362306429,0.30840105382439925,0
0.3089,0.3079,0.3085010372754037,0.3086006642896285,0
0.3089,0.3079,0.3087005830898283,0.3088001457253542,0
0.3089,0.3079,0.3089,0.3088001457253542,0
0.3089,0.3079,0.3089,0.3088001457253542,0
0.3089,0.3069,0.3089,0.3087005830898283,0
0.3089,0.3069,0.3089,0.3087005830898283,0
0.3089,0.3069,0.3089,0.3087005830898283,0
0.3089,0.3069,0.3089,0.3087005830898283,0
0.3089,0.3069,0.3089,0.3087005830898283,0
0.3089,0.3069,0.3089,0.3087005830898283,0
0.3089,0.3069,0.3089,0.3087005830898283,0
0.3089,0.3069,0.3089,0.3087005830898283,0
0.3089,0.3069,0.3089,0.3087005830898283,0
0.3128,0.305,0.3092922129637279,0.30890492388435636,0
0.3128,0.305,0.3096839291923299,0.30929713060421365,0
0.3128,0.305,0.3100751505683743,0.3096888406126382,0
0.3128,0.305,0.31046587896256816,0.31008005579204867,0
0.3128,0.305,0.3108561162338615,0.310470778013004,0
0.3128,0.305,0.31124586422955086,0.31086100913430753,0
0.3128,0.305,0.3116351247853811,0.31125075100311006,0
0.3128,0.305,0.31202389972564604,0.3116400054550122,0
0.3128,0.305,0.31241219086328886,0.3120287743141648,0
0.3128,0.305,0.3128,0.3120287743141648,0
0.3128,0.305,0.3128,0.3120287743141648,0
0.3128,0.305,0.3128,0.3120287743141648,0
0.3128,0.305,0.3128,0.3120287743141648,0
0.3128,0.305,0.3128,0.3120287743141648,0
0.3128,0.305,0.3128,0.3120287743141648,0
0.3128,0.305,0.3128,0.3120287743141648,0
0.3128,0.305,0.3128,0.3120287743141648,0
0.3128,0.305,0.3128,0.3120287743141648,0
0.3128,0.305,0.3128,0.3120287743141648,0
0.3128,0.305,0.3128,0.3120287743141648,0
0.3187,0.3021,0.31339499836468354,0.31234353202843823,0
0.3187,0.3021,0.3139888692294681,0.31293939828663314,0
0.3187,0.3021,0.3145816189798762,0.3135341321132358,0
0.3187,0.3021,0.3151732539413838,0.31412773994029886,0
0.3187,0.3021,0.31576378038020764,0.31472022813921574,0
0.3187,0.3021,0.3163532045040796,0.315311603021519,0
0.3187,0.3021,0.3169415324630081,0.31590187083966437,0
0.3187,0.3021,0.3175287703500267,0.31649103778780213,0
0.3187,0.3021,0.31811492420193055,0.31707911000253547,0
0.3187,0.3021,0.3187,0.31707911000253547,0
0.3187,0.3021,0.3187,0.31707911000253547,0
0.3187,0.3021,0.3187,0.31707911000253547,0
0.3157,0.2972,0.3184012719823839,0.3163150091285584,0
0.3157,0.2972,0.31810226343111736,0.31601402658742855,0
0.3157,0.2972,0.31780297355437065,0.31571275710683594,0
0.3157,0.2972,0.31750340155658174,0.31541119986455773,0
0.3157,0.2972,0.31720354663843214,0.31510935403443674,0
0.3157,0.2972,0.3169034079968216,0.314807218786355,0
0.3157,0.2972,0.31660298482484334,0.31450479328620734,0
0.3157,0.2972,0.31630227631175845,0.31420207669587413,0
0.3157,0.2972,0.31600128164297053,0.3138990681731948,0
0.3157,0.2972,0.3156999999999999,0.3138990681731948,0
0.3157,0.2972,0.3156999999999999,0.3138990681731948,0
0.3167,0.2991,0.315800142495218,0.3141801425933854,0
0.3167,0.2991,0.3159002532445962,0.3142807693766833,0
0.3167,0.2991,0.3160003322783063,0.31438136395149124,0
0.3167,0.2991,0.3161003796264724,0.3144819263487172,0
0.3167,0.2991,0.316200395319171,0.31458245659921974,0
0.3167,0.2991,0.3163003793864307,0.3146829547338082,0
0.3167,0.2991,0.316400331858233,0.3147834207832426,0
0.3167,0.2991,0.316500252764512,0.31488385477823405,0
0.3167,0.2991,0.3166001421351544,0.3149842567494445,0
0.3187,0.3021,0.31690056800201544,0.31547190366179995,0
0.3187,0.3021,0.31710100914377426,0.31567325195524565,0
0.3187,0.3021,0.31730132366569164,0.31587447190300133,0
0.3187,0.3021,0.3175015118074243,0.3160755637501893,0
0.3187,0.3021,0.317701573807874,0.31627652774115245,0
0.3187,0.3021,0.3179015099051906,0.316477364119458,0
0.3187,0.3021,0.3181013203367757,0.31667807312790064,0
0.3187,0.3021,0.31830100533928574,0.31687865500850637,0
0.3187,0.3021,0.3185005651486352,0.31707911000253547,0
0.3187,0.3021,0.3187,0.31707911000253547,0
0.3187,0.3021,0.3187,0.31707911000253547,0
0.3089,0.305,0.3177336022519494,0.31638611379136095,0
0.3089,0.305,0.31676425619062515,0.3154126265703388,0
0.3089,0.305,0.31579193466584926,0.31443612546906885,0
0.3089,0.305,0.31481661010817075,0.3134565823204228,0
0.3089,0.305,0.31383825451974456,0.3124739685157789,0
0.3089,0.305,0.31285683946495396,0.31148825499527266,0
0.3089,0.305,0.31187233606076703,0.310499412237769,0
0.3089,0.305,0.3108847149668185,0.30950741025054634,0
0.3089,0.305,0.3098939463752075,0.30851221855868205,0
0.3089,0.305,0.3089,0.30851221855868205,0
0.3089,0.305,0.3089,0.30851221855868205,0
0.3021,0.3167,0.3082267509480642,0.3090173101947527,0
0.3021,0.3167,0.3075520281188209,0.3083443172818335,0
0.3021,0.3167,0.3068758217911603,0.3076698522767546,0
0.3021,0.3167,0.3061981221366323,0.3069939054769655,0
0.3021,0.3167,0.30551891921777935,0.3063164670728624,0
0.3021,0.3167,0.3048382029864367,0.3056375271461278,0
0.3021,0.3167,0.3041559632819978,0.3049570756680356,0
0.3021,0.3167,0.3034721898296448,0.30427510249772327,0
0.3021,0.3167,0.3027868722385434,0.3035915973804282,0
0.3021,0.3167,0.3021,0.3035915973804282,0
0.305,0.3187,0.3023912515268919,0.30409044213851905,0
0.305,0.3187,0.30268222280140605,0.3043797890793671,0
0.305,0.3187,0.3029729146309947,0.304668861224773,0
0.305,0.3187,0.3032633278192403,0.30495765935618013,0
0.305,0.3187,0.3035534631658812,0.30524618425133504,0
0.305,0.3187,0.30384332146683757,0.30553443668431224,0
0.305,0.3187,0.30413290351423666,0.305822417425538,0
0.305,0.3187,0.3044222100964383,0.30611012724181474,0
0.305,0.3187,0.30471124199805955,0.3063975668963446,0
0.305,0.3187,0.305,0.3063975668963446,0
0.305,0.3187,0.305,0.3063975668963446,0
0.305,0.3187,0.305,0.3063975668963446,0
0.2972,0.3255,0.304228999275217,0.30634589763860065,0
0.2972,0.3255,0.30345603964989726,0.3055782927499923,0
0.2972,0.3255,0.3026811061166521,0.3048087547955275,0
0.2972,0.3255,0.30190418347548614,0.3040372690970632,0
0.2972,0.3255,0.3011252563303185,0.30326382078975395,0
0.2972,0.3255,0.30034430908542287,0.30248839481871037,0
0.2972,0.3255,0.2995613259417844,0.30171097593557983,0
0.2972,0.3255,0.2987762908933706,0.30093154869504796,0
0.2972,0.3255,0.29798918772331323,0.3001500974512586,0
0.2972,0.3255,0.2972,0.3001500974512586,0
0.2972,0.3255,0.2972,0.3001500974512586,0
0.3196,0.3255,0.2995153952637494,0.3024429086621143,0
0.3196,0.3255,0.30181302821448913,0.30471846842618516,0
0.3196,0.3255,0.3040933014717687,0.3069771603881957,0
0.3196,0.3255,0.30635660267080916,0.30921935418081453,0
0.3196,0.3255,0.3086033052318138,0.3114454061308338,0
0.3196,0.3255,0.3108337690792299,0.31365565992023803,0
0.3196,0.3255,0.31304834131488385,0.3158504472056356,0
0.3196,0.3255,0.31524735684855476,0.31803008819921424,0
0.3196,0.3255,0.31743113898923025,0.32019489221410136,0
0.3196,0.3255,0.3196,0.32019489221410136,0
0.2688,0.3216,0.3148890090174632,0.3150925705249173,0
0.2688,0.3216,0.31010645913943813,0.3103131579549923,0
0.2688,0.3216,0.3052489868943057,0.3054589726951887,0
0.2688,0.3216,0.3003129567634404,0.3005263915199462,0
0.2688,0.3216,0.2952944293412932,0.29551148877835526,0
0.2688,0.3216,0.2901891245377745,0.2904099998278296,0
0.2688,0.3216,0.2849923788454702,0.2852172785789809,0
0.2688,0.3216,0.2796990954579582,0.2799282479493629,0
0.2688,0.3216,0.27430368572077185,0.27453734172239663,0
0.2688,0.3216,0.2688,0.27453734172239663,0
0.2688,0.3216,0.2688,0.27453734172239663,0
0.2688,0.3216,0.2688,0.27453734172239663,0
0.2825,0.2981,0.2702012601747075,0.27325764033234273,1
0.2825,0.2981,0.2715952908280996,0.2746361574884123,1
0.2825,0.2981,0.27298220271658735,0.27600778974514467,1
0.2825,0.2981,0.2743621037971534,0.27737263924186895,1
0.2825,0.2981,0.27573509932542134,0.27873080561717606,1
0.2825,0.2981,0.27710129194935196,0.2800823860938063,1
0.2825,0.2981,0.2784607817988019,0.2814274755598678,1
0.2825,0.2981,0.2798136665711666,0.2827661666465774,1
0.2825,0.2981,0.28116004161331315,0.2840985498027049,1
0.2825,0.2981,0.2825,0.2840985498027049,1
0.2854,0.3021,0.2827913382690495,0.28481003669112503,1
0.2854,0.3021,0.2830823767033193,0.28509901437921525,1
0.2854,0.3021,0.28337311622664557,0.28538769945461906,1
0.2854,0.3021,0.28366355775813007,0.2856760928044207,1
0.2854,0.3021,0.28395370221217403,0.2859641953112312,1
0.2854,0.3021,0.28424355049851174,0.2862520078532201,1
0.2854,0.3021,0.284533103522244,0.28653953130414656,1
0.2854,0.3021,0.2848223621838707,0.2868267665333903,1
0.2854,0.3021,0.2851113273793239,0.2871137144059823,1
0.2884,0.3157,0.2857014175673617,0.288871308717221,1
0.2884,0.3157,0.2860025174714377,0.28916910796279743,1
0.2884,0.3157,0.2863033007144696,0.28946660083678044,1
0.2884,0.3157,0.28660376829344025,0.2897637882828011,1
0.2884,0.3157,0.2869039212001118,0.2900606712396563,1
0.2884,0.3157,0.2872037604210641,0.29035725064134355,1
0.2884,0.3157,0.28750328693773225,0.290653527417095,1
0.2884,0.3157,0.28780250172644434,0.2909495024914117,1
0.2884,0.3157,0.2881014057584586,0.2912451767840971,1
0.2884,0.3157,0.2884,0.2912451767840971,1
0.2884,0.3157,0.2884,0.2912451767840971,1
0.2874,0.346,0.2883001560873667,0.2945693874115231,1
0.2874,0.346,0.2882002775848767,0.2944716353063568,1
0.2874,0.346,0.28810036445655535,0.2943738507408564,1
